frame_index,time_s,G_skin_raw,G_normalized,frame_luminance,face_detected,skin_pixel_count,BVP_detrended,BVP_butterworth,BVP_cheby1,BVP_cheby2,BVP_elliptic,gt_bpm,bisenet_conf,vote_mean,highconf_pct,roi_coverage,green_cv,hair_rej_frac,quality_score
1,0.0,120.15385437011719,0.9977498696832183,117.07205200195312,1.0,56501.0,-0.002484961775956751,-0.0004156877983198917,-0.00043119106396313,0.0003898886264162696,-0.0004276404720702057,,0.9602516889572144,0.9383668725627275,0.8889046211571476,0.7379192351896353,0.34776464104652405,0.2229913279699091,0.7780689592338644
2,0.03333514788604609,120.15617370605469,0.9977691292994956,117.05643463134766,1.0,56700.0,-0.00048163130542738797,0.00027414656372698313,0.00010960480307661004,0.0005286531795345787,4.502820392542601e-05,,0.9585543274879456,0.9385008818342152,0.8859259259259259,0.7380025771518567,0.35019180178642273,0.22271538091085397,0.7776484425227667
3,0.06667029577209219,120.16641235351562,0.9978541503687192,116.97743225097656,1.0,57140.0,-0.0008922833620224058,0.0006869015053767541,0.00039337848662802265,0.0006121221693230492,0.0003026038723802614,,0.957923948764801,0.9369618480924046,0.8834791739586979,0.739006725297465,0.35118407011032104,0.22259441282979825,0.7770987640865819
4,0.10000544365813828,120.1976318359375,0.99811339494045,116.93852996826172,1.0,57223.0,-0.0022718996523092283,0.000664013102364567,0.0002980980209488247,0.000623153045497387,0.00024083108373144962,,0.957999050617218,0.937979483774007,0.8841724481414815,0.73870443044511,0.35130074620246887,0.22277445006712795,0.7773396961152416
5,0.13334059154418437,120.17037963867188,0.9978870944491932,116.98812866210938,1.0,57091.0,-0.0024470539787378454,0.000233438317465938,-0.00013733909192118477,0.0005568354362697883,-0.00012571081637632918,,0.9589669704437256,0.9360144330980366,0.8844301203342033,0.7370004130951151,0.35101160407066345,0.22311008984818753,0.7770716814379893
6,0.16667573943023045,120.20680236816406,0.998189546449546,116.45872497558594,1.0,56972.0,-0.006526343355771236,-0.00042294796396771675,-0.0007467727464428051,0.0004192610536499575,-0.0006809277116862926,,0.9570109844207764,0.9399822134849868,0.8877343256336446,0.7356446510426754,0.34892794489860535,0.22444315320550068,0.7772102180563794
7,0.20001088731627656,120.12435150146484,0.9975048797616926,116.6701889038086,1.0,56921.0,-0.00316586429327248,-0.0010690145670258205,-0.0013245046782732893,0.0002270735150451177,-0.001257031675987028,,0.9572142958641052,0.9406253111036934,0.8871066917306443,0.7348343037141271,0.3486911654472351,0.22437097378035398,0.7774464217790842
8,0.23334603520232264,120.28763580322266,0.9988607820892061,116.7488021850586,1.0,56986.0,-0.01023247036654984,-0.0015214838094469035,-0.0017157801773238892,-2.02504301243251e-06,-0.0017018976602900095,,0.9569082856178284,0.9403596204915828,0.8864633418734426,0.7353506677850183,0.3492317199707031,0.2241305890702626,0.7773362729941916
9,0.26668118308836875,120.14781188964844,0.9976996933144963,117.06246185302734,1.0,56837.0,-0.003571624614903235,-0.0017080923118454976,-0.0018635010546953063,-0.0002471723078433885,-0.0019182683387657517,,0.9588947892189026,0.938027458639032,0.8890687404331685,0.7335888897493482,0.3491157293319702,0.22432174294638477,0.7773109528361519
10,0.3000163309744148,120.20304870605469,0.9981583762810975,117.07186126708984,1.0,56829.0,-0.005952401080313308,-0.0016562406841832268,-0.001796254611761697,-0.0004952854920541265,-0.0018854929968261929,,0.9586895108222961,0.9379366168681483,0.8892114941315173,0.7336560805577073,0.3484986424446106,0.223715466046992,0.7773479142543275
11,0.3333514788604609,120.14281463623047,0.9976581964438991,117.1223373413086,1.0,56721.0,-0.004501869258008273,-0.0014368637073370653,-0.0015797385914419562,-0.0007340551161910746,-0.0016400004446229584,,0.959168553352356,0.938923267690391,0.8907811921510551,0.7329904500988589,0.34793058037757874,0.22382176963932646,0.7777170290004393
12,0.366686626746507,120.19328308105469,0.9980772831599304,116.98677825927734,1.0,56724.0,-0.006883722101640899,-0.0011130207169167052,-0.0012719332577609183,-0.0009554713934559793,-0.0012559321951471972,,0.9587874412536621,0.9392497003032226,0.8909808899231366,0.7320642705039685,0.3476486802101135,0.22386268309995483,0.7776761208319133
13,0.4000217746325531,120.1844253540039,0.9980037291648718,117.05531311035156,1.0,56792.0,-0.007102164631868746,-0.0007292924192973357,-0.0009110405743127822,-0.0011479039724826478,-0.0008180712337797642,,0.9581658244132996,0.939521998403531,0.8906183969573179,0.7323558616065096,0.3488793969154358,0.2245090074406489,0.7774284454367429
14,0.4333569225185992,120.2870864868164,0.9988562206011405,117.04914855957031,1.0,56925.0,-0.01122356781675743,-0.00033705407479829607,-0.0005342617169507908,-0.0012955265333282689,-0.00041146157626425995,,0.9574086666107178,0.9391889913629043,0.8909090909090909,0.7327292152042116,0.348000705242157,0.2246907541608207,0.7770816969917773
15,0.4666920704046453,120.15119171142578,0.9977277591369001,117.19184875488281,1.0,56735.0,-0.0050992135266068606,-1.5913195451056383e-05,-0.0001988370359273422,-0.0013726932639095057,-0.0001064520866152337,,0.9573620557785034,0.939619870156576,0.8926236009517934,0.7316585636356602,0.3489604890346527,0.22503643139935262,0.7771062979928246
16,0.5000272182906914,120.17945861816406,0.9979624857102782,117.234375,1.0,56804.0,-0.005551076590558479,0.0001464672508460152,2.5165405053284175e-05,-0.0013498764035099955,5.302640079150737e-05,,0.9578520655632019,0.9387132361570781,0.890148581085839,0.732501160571517,0.34992796182632446,0.22490586475473257,0.7770527557572835
17,0.5333623661767375,120.17567443847656,0.997931062125826,117.25923156738281,1.0,56766.0,-0.005582646204380315,0.00011520423529204175,9.647657328149498e-05,-0.0011947096216686315,7.445311083172986e-05,,0.9574048519134521,0.9393416246814407,0.8921361378289822,0.7320583418232465,0.349234014749527,0.22503643139935262,0.7770495754645254
18,0.5666975140627836,120.24212646484375,0.9984828754737675,117.20562744140625,1.0,56881.0,-0.007871976491700017,-3.390500047962456e-05,5.2821074419507586e-05,-0.0008842544291215039,2.9227479836964785e-05,,0.9572561979293823,0.9397689914031048,0.8930046940103022,0.7317295941339165,0.34869569540023804,0.224300508136618,0.7772590056022673
19,0.6000326619488296,120.20598602294922,0.9981827675714484,117.36127471923828,1.0,56854.0,-0.006963226458731986,-0.00011217784918115062,2.8843707787323093e-05,-0.00041237765308315837,5.037287832781838e-05,,0.9581989645957947,0.9404673960202156,0.8933408379357652,0.7313728517032005,0.3488953113555908,0.22432335082844498,0.7777118682181033
20,0.6333678098348757,120.30599975585938,0.9990132751694007,117.12029266357422,1.0,56885.0,-0.010777598465469607,0.00010847781747188987,0.00021523511674993118,0.00019913937817525322,0.0002918188109693485,,0.9571951627731323,0.9396853300518591,0.8922563065834579,0.7317716373366265,0.34883588552474976,0.22420757435422456,0.7772383664740596
21,0.6667029577209218,120.2005844116211,0.9981379129388029,117.03510284423828,1.0,57075.0,-0.006724404913377446,0.0007764243949118756,0.0007677614895330394,0.0008998038246364069,0.0008672496423542878,,0.9577717185020447,0.9378011388523873,0.8907577748576434,0.7343764073135269,0.34955576062202454,0.22475842458086182,0.7768301153475379
22,0.7000381056069679,120.26013946533203,0.9986324542699202,116.68831634521484,1.0,57184.0,-0.009404621246498435,0.0018583285992431722,0.0017088124791249935,0.0016082044448948877,0.0017775025811513326,,0.9563071727752686,0.937459196045514,0.8878882204812535,0.7357788957655143,0.3494401276111603,0.22451395411675396,0.7763541600206082
23,0.733373253493014,120.1550064086914,0.9977594361373561,116.84598541259766,1.0,57106.0,-0.0043473042153432395,0.003112847260092466,0.0028753175099680774,0.002226897018377202,0.0028768287608196557,,0.9576314687728882,0.9366849951552084,0.8893286169579379,0.7347752801760188,0.34923505783081055,0.22465548964860588,0.7765295914909474
24,0.76670840137906,120.1437759399414,0.9976661790480139,116.84876251220703,1.0,57130.0,-0.004418348395603122,0.004160688533069908,0.003947879936167732,0.0026529236815071725,0.0038860752132989238,,0.9576248526573181,0.9377034832837389,0.889375109399615,0.7350840849727865,0.3490394055843353,0.22451395411675396,0.7768105357947793
25,0.8000435492651062,120.18999481201172,0.9980499775855374,116.75189208984375,1.0,57112.0,-0.0066972318191436675,0.00462325522816988,0.004556818485517016,0.0028001810184841223,0.004473881009682015,,0.9571860432624817,0.9376721763085399,0.8892351870009805,0.7348524813752106,0.34886038303375244,0.22499002817843772,0.7765758514201918
26,0.8333786971511523,120.13245391845703,0.9975721617106609,116.66043853759766,1.0,57046.0,-0.005346715668192892,0.004269451758012511,0.004422567440957865,0.002616216148675134,0.00436977254478919,,0.9575394988059998,0.938161016255887,0.8900010517827718,0.7340032681840991,0.3482619524002075,0.22589070883567725,0.7766239619386361
27,0.8667138450371984,120.14857482910156,0.9977060287145875,116.81118774414062,1.0,57016.0,-0.006065663608761596,0.0031078518341435633,0.0034702019938744623,0.0020954879086880324,0.0034725117619369677,,0.9587968587875366,0.9392860483606941,0.891100743650905,0.7336172621881393,0.3473797142505646,0.22583924136954928,0.7772927214525247
28,0.9000489929232445,120.1639633178711,0.9978338137344265,116.67697143554688,1.0,57045.0,-0.007378534595796793,0.001386207744260193,0.0018687122142380884,0.0012866568173766232,0.0019083007604892973,,0.9574094414710999,0.9406842551202267,0.8888070821281444,0.7339904013175671,0.34793350100517273,0.2259679100348692,0.7772003142144128
29,0.9333841408092906,120.34139251708984,0.9993071743796305,116.4850082397461,1.0,56964.0,-0.01615239886044101,-0.0004998576707562117,-2.117227766845129e-05,0.0002859555854319185,5.398356516841577e-06,,0.9570717215538025,0.9383470261919808,0.8892282845305807,0.7329481851284757,0.34834277629852295,0.22704872682355665,0.7762985276494246
30,0.9667192886953366,120.28129577636719,0.9988081349144485,116.71015930175781,1.0,56826.0,-0.01309996590884771,-0.0021469899295838393,-0.001767565324740852,-0.0007725922511028414,-0.001800734738992137,,0.9582815170288086,0.9394174028320369,0.8912821595748425,0.7325486960669305,0.3477360010147095,0.2270377579828033,0.7769312542200911
31,1.0000544365813828,120.32340240478516,0.9991577856454805,116.85791015625,1.0,56682.0,-0.014210377015751119,-0.003269897180302653,-0.0030066447653776082,-0.0017428897258725449,-0.0031119012113808007,,0.9580985903739929,0.9395457699681263,0.890617832821707,0.7306923800806981,0.348555326461792,0.22649633248681886,0.7770167531068658
32,1.0333895844674288,120.3052978515625,0.9990074466013169,116.85389709472656,1.0,56722.0,-0.013326736655380866,-0.0037628512584733606,-0.003548065679868001,-0.0024863338910882816,-0.0036921804106478037,103.0,0.9576454162597656,0.9392945711834327,0.8899016254715983,0.7314909147182853,0.3498661518096924,0.22617128560927485,0.776883010551933
33,1.066724732353475,120.36265563964844,0.9994837419801715,116.98411560058594,1.0,56714.0,-0.01533135636074806,-0.003687004029400847,-0.0034134611313689192,-0.002899015793981483,-0.0035409618630231924,103.0,0.957668125629425,0.9399854239400031,0.8908735056599781,0.7313877461537469,0.3486950397491455,0.2265452716557265,0.776987739342683
34,1.100059880239521,120.32403564453125,0.9991630440275562,116.88785552978516,1.0,56691.0,-0.01496017473378447,-0.003210564804139124,-0.00280321047932859,-0.002927011536066933,-0.0028730416739531943,103.0,0.9581844806671143,0.9414898308373463,0.892998888712494,0.7297359918647908,0.3463355302810669,0.2264085368208323,0.7775460945453042
35,1.1333950281255671,120.34623718261719,0.9993474041702095,116.90662384033203,1.0,56597.0,-0.015480239513001703,-0.00253876874783568,-0.0020102065303367446,-0.002577272494694865,-0.0020242687370936522,103.0,0.9585852026939392,0.9406623437049078,0.8914960156898776,0.7303686879766682,0.3477537930011749,0.2261682001780852,0.7775075066987917
36,1.166730176011613,120.36272430419922,0.9994843121661798,117.27200317382812,1.0,56664.0,-0.014685985775847121,-0.001856316226229673,-0.0013121487601835554,-0.001914992266983549,-0.0013128363150577526,103.0,0.9584327340126038,0.9398442279636688,0.8902301284766342,0.7304603405824192,0.3491451144218445,0.22580021399198175,0.7773308343963019
37,1.2000653238976593,120.32255554199219,0.9991507533513794,117.31409454345703,1.0,56587.0,-0.013847948072723493,-0.0012870337206797216,-0.0008770589333266415,-0.0010530394721217388,-0.000917342388622696,103.0,0.9580320119857788,0.9424308292246159,0.8931910156042907,0.7285379544752292,0.3479682207107544,0.22678700175095273,0.777659910551697
38,1.2334004717837053,120.2849349975586,0.9988383547728834,117.16607666015625,1.0,56511.0,-0.01162018389275915,-0.000869791398016074,-0.0007127218020442498,-0.00013140415862772725,-0.0008179978762537858,103.0,0.9573913812637329,0.9418992172615361,0.89350745872485,0.7287698438285855,0.3466569781303406,0.22596494848019807,0.7774992289984644
39,1.2667356196697515,120.26490783691406,0.99867205052049,117.20368957519531,1.0,56246.0,-0.011839562262322134,-0.0005558121876216586,-0.0006794940004924685,0.0007062037962904694,-0.0008292798552631327,103.0,0.956906259059906,0.9412936031006649,0.8934857589873058,0.7267864065124693,0.34630686044692993,0.22584313218762114,0.7772266520556138
40,1.3000707675557976,120.25315856933594,0.9985744853590859,117.25481414794922,1.0,56028.0,-0.011359016330409588,-0.00023736141920590497,-0.0005661803423154962,0.0013377907876953965,-0.0007064830683381127,103.0,0.9564308524131775,0.9424216463196973,0.8966766616691654,0.7261745836303545,0.34511688351631165,0.22662173546756528,0.7772103202103644
41,1.3334059154418436,120.322998046875,0.9991544278834322,117.48860931396484,1.0,56378.0,-0.012192107474836789,0.00019109562732103617,-0.00020306112410863804,0.0016821185738903806,-0.0002821271015903793,103.0,0.9595475792884827,0.9408161576028474,0.8928660115647947,0.7278619104793628,0.34696415066719055,0.22638367094000542,0.7777915789992556
42,1.3667410633278898,120.30685424804688,0.999020370817503,117.35515594482422,1.0,56204.0,-0.012657438424335699,0.0007598578058836434,0.0004356400292849951,0.0017117744993077975,0.00043389981235557784,103.0,0.9609453082084656,0.9435449434203971,0.8980499608568785,0.7273433152588873,0.34410205483436584,0.2261850840526445,0.7789328115071101
43,1.4000762112139358,120.255615234375,0.9985948853473795,117.5151596069336,1.0,56311.0,-0.00909539800283704,0.0013780304871962943,0.0011918269795668738,0.0014558985614701611,0.0012394176066132818,103.0,0.9598246812820435,0.9421723405136948,0.8962724867255065,0.7265935483870968,0.34505608677864075,0.22636129032258065,0.7782182314485206
44,1.433411359099982,120.28706359863281,0.9988560305391379,117.34292602539062,1.0,56484.0,-0.011142338502557136,0.001850193468244891,0.001776181973247013,0.0009908888078804718,0.0018211079032052556,103.0,0.9599766135215759,0.9419658664400538,0.8965370724452942,0.726575765371752,0.3451464772224426,0.22581682531515307,0.7783210856034555
45,1.466746506986028,120.21245574951172,0.9982364917642217,117.1834716796875,1.0,56411.0,-0.008140864279642224,0.001961692565553227,0.0019003807494801118,0.00042691339761008896,0.0019042381456798084,103.0,0.9610791802406311,0.9418907659853574,0.8970413571821099,0.7283255651814649,0.34495458006858826,0.2258530980078241,0.7786258259669638
46,1.5000816548720741,120.23534393310547,0.998426553766957,117.44857788085938,1.0,56454.0,-0.007714369105444985,0.0015977435091753423,0.001431408159830808,-0.00011699633913581352,0.001394680789952051,103.0,0.9608864188194275,0.9414508567447243,0.8960038261239239,0.7297664137333729,0.34578442573547363,0.22483486084359933,0.7786616676632895
47,1.53341680275812,120.20995330810547,0.9982157116519226,117.31668090820312,1.0,56365.0,-0.0074373481068945035,0.0008339590083298379,0.0004897078522044466,-0.0005332313975276071,0.00045255875150166606,103.0,0.9617928266525269,0.9423401046748868,0.8969573316774594,0.7292758348536014,0.34368911385536194,0.22534901473689659,0.7790530712171005
48,1.5667519506441663,120.28459930419922,0.9988355671968433,117.16499328613281,1.0,56537.0,-0.011330240320746865,-5.8885698598136075e-05,-0.0005683843307558428,-0.0007479558806513214,-0.0005543504692417588,103.0,0.9618005752563477,0.9419200405634068,0.8978898774254028,0.7297733374638579,0.34298768639564514,0.22544919454770757,0.7789303438082145
49,1.6000870985302125,120.27014923095703,0.9987155747191164,117.13426208496094,1.0,56610.0,-0.01128103571850625,-0.0007124170479171426,-0.0012896815261074597,-0.0007323084200039721,-0.0011961274035261938,103.0,0.9613973498344421,0.9420184890773126,0.895848789966437,0.7290030133669869,0.34434378147125244,0.22582223710304686,0.7787593797990515
50,1.6334222464162584,120.1968002319336,0.9981064893543508,116.93719482421875,1.0,56704.0,-0.00981635183942342,-0.0008212751567733232,-0.0013270509709967077,-0.0005076385642923123,-0.001170080812649798,103.0,0.9617672562599182,0.9410270880361175,0.8967797686230248,0.7297999948518623,0.34260445833206177,0.2257844474761255,0.7786300593917796
51,1.6667573943023046,120.11629486083984,0.9974379779367297,116.7474365234375,1.0,56847.0,-0.007149751181707131,-0.00028997642929457727,-0.0006098848720135715,-0.00013743452546717566,-0.00044049118480984136,103.0,0.9609106183052063,0.940026152069004,0.8946998082572519,0.7318194106515274,0.3442142903804779,0.22608426987989033,0.7780628695328348
52,1.7000925421883506,120.12390899658203,0.9975012052296397,116.66767883300781,1.0,56815.0,-0.01000850809467374,0.0007073746641972672,0.0006048880237282963,0.00028603127872918883,0.0007322792096671624,103.0,0.9607469439506531,0.9402681216814809,0.894675701839303,0.7314074589013762,0.3437809646129608,0.2260199024189292,0.7780871331217803
53,1.7334276900743968,120.0786361694336,0.9971252625882293,116.98716735839844,1.0,56736.0,-0.005738343138850965,0.0017876713981145756,0.0018331220043671644,0.0006647691937700321,0.0018975846587779774,103.0,0.9600679278373718,0.9404610829103216,0.8940002820078963,0.7317280782078234,0.34443363547325134,0.2262790667681236,0.7778798357251672
54,1.7667628379604428,120.04414367675781,0.9968388391501072,117.31999969482422,1.0,56793.0,-0.0029840320422581668,0.0025172221536890788,0.00257271687698511,0.0009136134400327999,0.0026004956597305714,103.0,0.9598346948623657,0.9406147471225914,0.8950927050868945,0.730936048082987,0.3481338620185852,0.22566570998339747,0.777970953242678
55,1.800097985846489,119.96569061279297,0.9961873699587315,117.20854187011719,1.0,56917.0,-0.000867474108375732,0.002597690110926637,0.002523577377589742,0.000980811200132748,0.0025725428135238457,103.0,0.9580143690109253,0.9390867403411987,0.8942495212326721,0.7312614024719274,0.3501458764076233,0.2257882159467585,0.7770183525992255
56,1.833433133732535,119.99263763427734,0.9964111362899518,116.92047882080078,1.0,57027.0,-0.0025321116246074804,0.0019905856505100894,0.0017122787772165648,0.0008563067186067553,0.001832646142412054,103.0,0.9563218355178833,0.9370648990828906,0.8917530292668385,0.7326746665981447,0.35323566198349,0.2255312588329008,0.7760565236595075
57,1.866768281618581,120.07403564453125,0.9970870601256795,116.563232421875,1.0,56919.0,-0.006520696330270803,0.0009177405502823938,0.0004622351153335865,0.0005727693483677904,0.0006609475875962312,103.0,0.9552987217903137,0.9358386479031607,0.8889474516418068,0.7340409068633773,0.3564409613609314,0.2250651259962343,0.7755362533136373
58,1.9001034295046273,119.99846649169922,0.9964595387466485,116.14875793457031,1.0,56665.0,-0.005172217834302051,-0.0002597792337325232,-0.0007712380058020629,0.0001967616814917653,-0.0005384622816422945,103.0,0.954750657081604,0.9363451866231359,0.8898261713579811,0.7334800336547797,0.35670945048332214,0.22566824153776455,0.7753778454727124
59,1.9334385773906733,120.0145263671875,0.9965928989185677,115.96719360351562,1.0,56515.0,-0.006428063720955057,-0.001214849378493712,-0.0016132066797572586,-0.00018988432601310646,-0.0014174674220291197,103.0,0.9532098770141602,0.9370845498245304,0.8890383084136955,0.7326479815395784,0.35851389169692993,0.22511602582384818,0.7752108953956108
60,1.9667737252767195,119.9439697265625,0.9960070011181357,115.73492431640625,1.0,56346.0,-0.005287346837421714,-0.0017849339396866736,-0.0019206751041271422,-0.0005082528418634487,-0.0018162140419845669,103.0,0.9507311582565308,0.9381145067972883,0.8905867319774252,0.7318327640175081,0.3582596480846405,0.2257737716415778,0.7745932198479658
61,2.0001088731627656,119.95807647705078,0.9961241426658216,116.18883514404297,1.0,56486.0,-0.0015716671721868747,-0.0019981608554760872,-0.0018036029410703669,-0.0007022517128101327,-0.0017952930606960436,103.0,0.9576947093009949,0.9340898629748965,0.8839358425096484,0.7351597579228216,0.36302709579467773,0.22615995314635257,0.775598887904752
62,2.0334440210488114,119.96859741210938,0.9962115078330789,115.94009399414062,1.0,56185.0,-0.0029994110410114794,-0.0019991259110021314,-0.0015191542595524303,-0.0007512381572231491,-0.001561492621095931,103.0,0.9582610130310059,0.9356411853697607,0.8852896680608704,0.7321570518250172,0.3636765778064728,0.22541341430042092,0.7763059173916578
63,2.0667791689348576,120.02703857421875,0.996696799480063,116.08671569824219,1.0,56061.0,-0.003983287146409276,-0.0019346455022114552,-0.0013093452158775575,-0.0006722656557242906,-0.001337027825619772,103.0,0.9580841660499573,0.9372707110706789,0.8874083587520737,0.7301510810106798,0.36281105875968933,0.22589215941651472,0.776564495699354
64,2.1001143168209038,119.97356414794922,0.9962527512876724,116.15159606933594,1.0,55902.0,-0.001568248728582966,-0.001872245634496779,-0.0012752693328558645,-0.0005143702952187636,-0.001245664502244998,103.0,0.9548947811126709,0.9397457455308694,0.8915960072984866,0.7284882129872161,0.3615809679031372,0.2257450773420905,0.7762558552481005
65,2.13344946470695,120.00662994384766,0.9965273275276241,116.23799133300781,1.0,56266.0,-0.00143962630486405,-0.0017921646890419617,-0.0013513150681104377,-0.0003437584458626726,-0.0012705649625938693,103.0,0.9481045007705688,0.9387670470029267,0.8903778480787687,0.7303573514713327,0.36397257447242737,0.22560002076870156,0.7740031078281621
66,2.1667846125929957,119.9993896484375,0.9964672045807588,115.96564483642578,1.0,56295.0,-0.0038165450154076797,-0.0016430113828221555,-0.0013809695597282055,-0.00022428432057030028,-0.0012982444436201914,103.0,0.9416356086730957,0.9379637031115848,0.8902922106759037,0.7301556420233463,0.36319565773010254,0.2259662775616083,0.7717883528675031
67,2.200119760479042,119.9745101928711,0.9962606071837855,116.14037322998047,1.0,56468.0,-0.0003658824851912601,-0.0014130951765471485,-0.0012385196473481213,-0.00019819599726009226,-0.001212331819036133,103.0,0.9328690767288208,0.9388621284031075,0.8895657717645392,0.7305328796719148,0.3629557490348816,0.2256361825167859,0.7694490186160658
68,2.233454908365088,120.00128936767578,0.9964829797269859,116.1422348022461,1.0,56541.0,-0.0008252200677196786,-0.0011633518049527065,-0.0009194536355374168,-0.00027496811683008765,-0.0009812557109129918,103.0,0.9239409565925598,0.9380921219410103,0.888682548946782,0.7326526116647014,0.3648982048034668,0.22516942453967062,0.7666714325550864
69,2.2667900562511343,119.923095703125,0.9958336645716411,116.0006332397461,1.0,56694.0,0.0028771492510337726,-0.000996112330366828,-0.0005462047422544145,-0.00042412316768904965,-0.0006814406894157975,103.0,0.9140626192092896,0.9376712409308451,0.8886478286943945,0.7332669400002587,0.36474472284317017,0.2259787627559269,0.7634408434443127
70,2.3001252041371805,119.94038391113281,0.9959772247377072,115.91609191894531,1.0,56728.0,0.004075058661172137,-0.0009797101018711638,-0.0002888211698811812,-0.0005844240894989253,-0.00044996812250606624,103.0,0.9036208987236023,0.9345531894890237,0.8853299957692851,0.7359530883097002,0.36538809537887573,0.22589224322465978,0.7595461183444046
71,2.333460352023226,120.02839660644531,0.9967080764922253,116.25333404541016,1.0,57008.0,-0.00020074817287590863,-0.0010814363787553438,-0.0002502635799959965,-0.0006783162927161384,-0.0003884636134452017,103.0,0.961848258972168,0.9384179998128918,0.8869807746281224,0.7355491329479769,0.36218318343162537,0.2261173616845582,0.7779355053079616
72,2.3667954999092724,120.06072235107422,0.9969765073940885,116.88070678710938,1.0,56865.0,-0.00021190913991958604,-0.0011568271727641995,-0.00038498131577482914,-0.0006329251987346615,-0.00047945647179106646,103.0,0.960866391658783,0.9367918168762274,0.8882440868724172,0.7318156079481107,0.36125537753105164,0.22562545042726243,0.7773327816312391
73,2.4001306477953186,119.93685150146484,0.995947891835285,117.40196228027344,1.0,56543.0,0.0036016020417021233,-0.0010057172868137016,-0.00049902073023618,-0.0004024558792042076,-0.0005650667278179447,103.0,0.9578791260719299,0.9424272972192255,0.8968749447323277,0.7288535409523319,0.35741549730300903,0.22599190492149837,0.7777721811420857
74,2.433465795681365,119.97201538085938,0.9962398904254873,117.48700714111328,1.0,56172.0,0.0015709847823924816,-0.00046451560062584266,-0.0003349292788902793,1.5092828257946051e-05,-0.0004082779528349062,103.0,0.9530704617500305,0.9449666500510338,0.9017303994872891,0.7271644573322287,0.350969135761261,0.2255592377796189,0.7770509534818438
75,2.4668009435674105,119.94697570800781,0.9960319625944949,117.57992553710938,1.0,56557.0,0.004027760503286626,0.0005123735510545803,0.00029895323290012786,0.000573080226799365,0.00018972996978507757,103.0,0.9432566165924072,0.9433845500998993,0.8993051258022879,0.7274492906478707,0.35261276364326477,0.22611804957104453,0.7735995125884881
76,2.5001360914534567,119.90103149414062,0.9956504448010043,117.56041717529297,1.0,56545.0,0.006373774712771063,0.0018171248927741088,0.0014164596630039416,0.0011790558780838344,0.0012674320637137192,103.0,0.9348439574241638,0.9427712441418339,0.8989123706782209,0.7289356984478935,0.3514622151851654,0.22569999484350023,0.7710059992940076
77,2.533471239339503,119.81631469726562,0.9949469619748801,117.39564514160156,1.0,56555.0,0.008743198780606365,0.003208535024111884,0.002812028242810397,0.0017137399624882156,0.002644766498534153,103.0,0.9269129037857056,0.9421212389119735,0.8980461497657148,0.7303922201702161,0.3518165349960327,0.2254394234867172,0.7685162961663616
78,2.566806387225549,119.89479064941406,0.9955986212282585,117.40679168701172,1.0,56755.0,0.008021552125618836,0.00437457689220802,0.004111510404284749,0.002054383885801592,0.003957649745883099,103.0,0.9231330156326294,0.9413796141309136,0.8983525680556779,0.729686294677295,0.35025471448898315,0.22518642324505014,0.7672475235735072
79,2.6001415351115953,120.01182556152344,0.996570471602245,117.54364013671875,1.0,56767.0,0.003918418097191845,0.005015622639068255,0.004898374717060807,0.002101806782369325,0.0047809082636837445,103.0,0.9207492470741272,0.9418265306721628,0.8988496837951627,0.7300282921810699,0.3485097587108612,0.22550154320987653,0.7665810981483034
80,2.633476682997641,119.8445053100586,0.995181055008249,117.34888458251953,1.0,56967.0,0.010895226394334434,0.004929445269949729,0.004867687204675496,0.0018061282515311001,0.004792479054479674,103.0,0.9141455292701721,0.940310472144692,0.8975196166201485,0.7317721714109546,0.349397212266922,0.22586322063508377,0.7641486326902078
81,2.6668118308836872,119.82135772705078,0.9949888389694828,117.1974868774414,1.0,57382.0,0.01126106354648021,0.004081110479117131,0.003948107918346528,0.0011782781550513572,0.003904530160174083,103.0,0.964229166507721,0.9392318148548325,0.8937471681014952,0.7379467328540747,0.3490051031112671,0.225388700986381,0.7789989634687483
82,2.7001469787697334,120.01348114013672,0.9965842194204428,117.11964416503906,1.0,57560.0,0.002894617186572579,0.002635112179002843,0.0023421149609126617,0.00029448363962327113,0.002311131100724749,103.0,0.9639498591423035,0.941377113736391,0.8957261987491313,0.7361461037715338,0.34491801261901855,0.22462943305495517,0.7796033495657977
83,2.7334821266557796,119.93206787109375,0.9959081688767134,117.4538345336914,1.0,57571.0,0.0072189836293742315,0.0009261344907168735,0.0004645840339458089,-0.0007139243200410181,0.0004282068278435732,103.0,0.9648700952529907,0.9443411902983563,0.8986989977592885,0.735336943749042,0.34327322244644165,0.22441628774331987,0.7806630686018222
84,2.7668172745418254,119.98966979980469,0.9963864915835972,117.48323059082031,1.0,57400.0,0.0026898788167360466,-0.0006361732039886654,-0.0011996233121844373,-0.0016874410686094905,-0.0012545483359219327,103.0,0.9634576439857483,0.9457897793263648,0.9026829268292683,0.7331996372322352,0.34132111072540283,0.2244306206649891,0.780598613894318
85,2.8001524224278715,120.0945053100586,0.9972570389101257,117.37068176269531,1.0,57618.0,-8.298020372982107e-05,-0.0017001083736434084,-0.0022636948262800115,-0.002462081182890665,-0.002339367800143573,103.0,0.9588447213172913,0.9464866303354276,0.9035197334166406,0.7331280537459284,0.3393732011318207,0.22513741856677524,0.7792475902656891
86,2.8334875703139177,120.05924987792969,0.9969642800719125,117.55358123779297,1.0,57663.0,0.0014406071887354543,-0.002089365061118518,-0.002564902709350875,-0.0029033150227317918,-0.0026505758984452068,103.0,0.9587523341178894,0.9464532426917319,0.9050864505835631,0.7316989607522174,0.33914175629615784,0.2233177255827528,0.7795754657917493
87,2.866822718199964,120.08699798583984,0.9971946985732286,117.74964141845703,1.0,57563.0,-0.0001297020303261398,-0.0018521917587079855,-0.0021985221358950266,-0.002930248818277344,-0.00227069134729302,103.0,0.9556432962417603,0.9482537972887677,0.9071104702673592,0.7293010173700414,0.3387756645679474,0.2237580610422025,0.7790048259862794
88,2.90015786608601,120.02848815917969,0.9967088367402362,117.8193130493164,1.0,57572.0,0.002321880766320561,-0.0012181713596829873,-0.00145004547682072,-0.0025288402503889232,-0.00147957760084719,103.0,0.9509373903274536,0.9494372264295143,0.9093135552004447,0.7296369051390913,0.3388400673866272,0.22271085482542297,0.77809835274053
89,2.933493013972056,120.01549530029297,0.9966009448766835,118.33441162109375,1.0,57699.0,0.0049233636658591595,-0.0004840512139917087,-0.0006612299953040812,-0.0017557814077887271,-0.0006293755647008444,103.0,0.9418560266494751,0.9484913083415657,0.9074507357146571,0.7306723061532032,0.34031808376312256,0.22337178821533046,0.7750052774371678
90,2.966828161858102,120.0419921875,0.99682097332185,118.44721984863281,1.0,57967.0,0.005221324262305316,0.00011211085670787086,-9.334799529978965e-05,-0.0007263122424808847,-6.14108601020797e-06,103.0,0.9311352372169495,0.9473953571284812,0.905980989183501,0.733490237760822,0.3394952416419983,0.22449986713737996,0.7712894370197291
91,3.0001633097441482,120.12236022949219,0.9974883443674546,119.02385711669922,1.0,57749.0,0.0005432300598920969,0.00046421050076183456,0.00015254299624271517,0.0004054761635908978,0.0002596597662431255,103.0,0.9685372114181519,0.9498057686424585,0.9098858854698783,0.7306762826595812,0.3336483836174011,0.2239514139305371,0.7832223227999526
92,3.0334984576301944,120.08671569824219,0.9971923544751948,119.11319732666016,1.0,57730.0,0.0019239950409773998,0.000589162750957981,0.00013113880847161828,0.0014748387966371705,0.00020861002191915637,103.0,0.9665606617927551,0.9512327501587851,0.9129915122120215,0.7268675320750916,0.333224892616272,0.22431789280183323,0.7829128075171562
93,3.06683360551624,120.0250244140625,0.9966800740238223,119.24553680419922,1.0,57385.0,0.0038027336826665925,0.0005583145855726172,-1.9657199570248905e-05,0.0023317835201154377,-8.179547581233284e-06,103.0,0.9611999988555908,0.9532398129592519,0.9156574017600418,0.7242197458258137,0.33358049392700195,0.22509686131478981,0.7816505806335322
94,3.1001687534022864,120.04698944091797,0.9968624701924472,119.0361328125,1.0,57777.0,0.002447302828498421,0.0004238927487454715,-0.00017321810162793978,0.0028651621749428862,-0.00022613579903685955,103.0,0.9524098038673401,0.9508801080014538,0.9120930474064074,0.7257505338525311,0.3348056972026825,0.22426830800150735,0.7785893065602639
95,3.1335039012883326,120.0126724243164,0.9965775038963461,118.83651733398438,1.0,57697.0,0.0030935064296009895,0.00018659668169580438,-0.00028187598713214133,0.0030175399242909477,-0.0003565633441577366,103.0,0.9473507404327393,0.9505000259978855,0.9120924831447043,0.7267448451335794,0.3350650370121002,0.22479878071821743,0.7768704724856496
96,3.1668390491743788,119.92916107177734,0.995884031002366,118.76722717285156,1.0,57909.0,0.0058819891903827415,-0.00018633143634792036,-0.0003906782396482931,0.002790059426178635,-0.00042620504948365386,103.0,0.9436104893684387,0.9510669038203617,0.9113091229342589,0.7268151866959524,0.33447036147117615,0.22456228427988703,0.7759374159096447
97,3.200174197060425,120.00994110107422,0.9965548231640198,118.3897476196289,1.0,57932.0,0.0011037262408064574,-0.0007180794436538079,-0.0006001651261414008,0.0022367852220669593,-0.0005545363843936309,103.0,0.9412372708320618,0.9499240488848996,0.9111026720983222,0.7274142715435516,0.334216833114624,0.22428146306550645,0.7749959008577422
98,3.2335093449464707,119.99510955810547,0.9964316629862473,118.33973693847656,1.0,58066.0,0.001511109077505457,-0.0013898857887731841,-0.001003071290023992,0.001454155050378928,-0.0008779802434752861,103.0,0.9409952163696289,0.9497812833672028,0.9115833706471945,0.7263061778428209,0.33474501967430115,0.22416100666691682,0.774911684419306
99,3.266844492832517,120.03788757324219,0.9967868888693595,118.1937484741211,1.0,57921.0,-0.0017617238065111285,-0.0021378469681643045,-0.0016256754584762102,0.0005590044866068108,-0.0014663631758695685,103.0,0.9419905543327332,0.9509043927648579,0.9130712522228552,0.7273126812913595,0.3326438069343567,0.2241671584816103,0.7754898327947124
100,3.300179640718563,119.96048736572266,0.9961441625301097,118.02252197265625,1.0,57879.0,0.000883324901983007,-0.0028711986643384308,-0.0023969564250400552,-0.00032712288832513405,-0.0022612565740273796,103.0,0.9432725310325623,0.9514849945576116,0.9138202111301162,0.7265663248013458,0.33189040422439575,0.2239866434014135,0.7760556792688889
101,3.3335147886046093,119.91324615478516,0.9957518745564641,117.59890747070312,1.0,58562.0,0.0026541335000519473,-0.0034924972526192304,-0.0031559937567539305,-0.0010987548367243115,-0.003077859825584407,103.0,0.9649696946144104,0.9469906537800394,0.9073972883439774,0.731979251296794,0.3318611979484558,0.2240359977501406,0.7814313722793048
102,3.366849936490655,119.93134307861328,0.9959021502466268,117.2254638671875,1.0,58452.0,-0.0015485499305757378,-0.0039096503452165764,-0.0036960267136325526,-0.0016786580847657617,-0.0036647623382378178,103.0,0.9638397097587585,0.9463320331211934,0.9065558064736878,0.7318667284360248,0.3312303125858307,0.22462343646311994,0.7808102339153018
103,3.400185084376701,119.92337036132812,0.995835945315674,117.89933776855469,1.0,58272.0,0.0005774136045831324,-0.004045186998049373,-0.0038328121396094404,-0.0020238996847713677,-0.003801362532748689,103.0,0.9667167067527771,0.9501876258466044,0.9115527182866557,0.7308666750282202,0.3297053575515747,0.22449517120280948,0.7826628842469223
104,3.4335202322627474,119.95738983154297,0.9961184408057395,117.96836853027344,1.0,58147.0,-0.0013932977496541876,-0.003851185422626898,-0.0034748994508181533,-0.002129857077794183,-0.00339431075235695,103.0,0.9659697413444519,0.9520066956736088,0.91275560218068,0.7293995157992449,0.32936277985572815,0.22401184159359752,0.7829902280030182
105,3.4668553801487936,119.84882354736328,0.9952169133727651,118.15109252929688,1.0,58107.0,0.003403834784704296,-0.0033281790132672017,-0.002667592398425166,-0.0020210961493914987,-0.0025188186539788007,103.0,0.9625170230865479,0.9523407965764309,0.914382088216566,0.7273831132252613,0.3298412561416626,0.22447267947674782,0.7819457701747226
106,3.5001905280348398,119.9468765258789,0.9960311389924831,118.57794952392578,1.0,58480.0,0.0005998749876277021,-0.0025362955340456463,-0.0015868677922128097,-0.001747325402098667,-0.0013958384868258537,103.0,0.9566336870193481,0.9538531691746467,0.9161764705882353,0.7271099617048788,0.33104565739631653,0.22454866464415377,0.7805436654706355
107,3.5335256759208855,119.95206451416016,0.9960742197131031,118.947265625,1.0,58508.0,0.0026261884739831043,-0.0015860763169457204,-0.0004771705491922186,-0.0013676882660392045,-0.0002956990309895524,103.0,0.9452695846557617,0.9534650532120964,0.9156525603336296,0.7292988469928327,0.3317415118217468,0.2245808663134933,0.7770309654370541
108,3.5668608238069317,119.96316528320312,0.9961663997844297,119.11852264404297,1.0,58381.0,0.0025263763873332734,-0.0006045427575183449,0.0004471098879326855,-0.0009440842135547651,0.0005739129266194094,103.0,0.9325330257415771,0.9530726320777879,0.914920950309176,0.7290971988060895,0.3331994116306305,0.2244576823648421,0.7731365292689516
109,3.600195971692978,119.87943267822266,0.9954710896244231,118.56256866455078,1.0,58599.0,0.008753353683575937,0.00031372127392595667,0.001094179205081759,-0.0005277448267633378,0.0011589524092718024,103.0,0.9093043208122253,0.9487647684545243,0.9073021723920204,0.7346915747241726,0.33517101407051086,0.2234704112337011,0.7652884061105585
110,3.633531119579024,119.88502502441406,0.9955175281070914,119.23989868164062,1.0,59027.0,0.008563817571800914,0.0011450358338378846,0.0015334230270661927,-0.0001566308040430129,0.0015688198332054568,103.0,0.8916558623313904,0.950079342221921,0.9120571941653819,0.7346875272270141,0.3327503800392151,0.22422613046562861,0.7601713681617717
111,3.66686626746507,119.88546752929688,0.9955212026391443,120.05748748779297,1.0,59005.0,0.007987082825595349,0.0019344657508386944,0.0019515876785260514,0.00015037330628924132,0.0020082708870791614,103.0,0.9715176224708557,0.9539925994972177,0.91644775866452,0.7334825035738703,0.32687896490097046,0.2251724780906209,0.784918940997437
112,3.700201415351116,119.90811920166016,0.9957093006678513,120.57695007324219,1.0,58719.0,0.005757386686883692,0.002742532705002641,0.0025388003238627607,0.0003894720129106337,0.0026492856736844927,103.0,0.970453143119812,0.9591500763523447,0.9242153306425518,0.7315641936086713,0.3225564956665039,0.22567744346851057,0.7857879733303276
113,3.733536563237162,119.84440612792969,0.9951802314062371,121.16162109375,1.0,58598.0,0.008981876114526222,0.0035685463617945576,0.003359305949073599,0.0005699358314107182,0.003516052773733223,103.0,0.9608005881309509,0.961449196218301,0.9290590122529779,0.7304115872659737,0.3206526041030884,0.22658489766409892,0.7832854959610407
114,3.7668717111232084,119.7923583984375,0.9947480304120171,121.03546142578125,1.0,59005.0,0.011078023378893243,0.004305054774783527,0.004279902442548582,0.0007061059285555177,0.004438085987674362,103.0,0.9483256936073303,0.9609072677456713,0.9272095585119905,0.7319448234797926,0.3227236568927765,0.22427866127471655,0.7798687927636736
115,3.8002068590092546,119.7831802368164,0.9946718155489203,120.57481384277344,1.0,59114.0,0.011071909797223833,0.004765486504024314,0.0050062209133708326,0.0008122408118950293,0.0051106534564300645,103.0,0.9344342947006226,0.9586505170799923,0.9243664783300064,0.7349014147542207,0.32215026021003723,0.22484397921380442,0.7750241218374241
116,3.8335420068953003,119.6714096069336,0.9937436794355629,119.88166809082031,1.0,59134.0,0.013607590454316032,0.0047799372587928966,0.005220886675387627,0.0008975090380128592,0.00523886446066854,103.0,0.9246562123298645,0.957227088758864,0.9222951263232658,0.7334540583449097,0.32080742716789246,0.22473457035126018,0.7717567218184234
117,3.8668771547813465,119.72953033447266,0.9942263102145087,120.05949401855469,1.0,59301.0,0.010912510176286083,0.004306083608538917,0.004758041006717984,0.0009620355641073424,0.004697150495407743,103.0,0.9185843467712402,0.9580052050836692,0.9234245628235611,0.734996653528668,0.3210337162017822,0.22536625269576857,0.7700033547631355
118,3.9002123026673927,119.75390625,0.9944287262474218,120.10456085205078,1.0,59168.0,0.009909336778302691,0.0034869297381247893,0.0037203645387515,0.0009994101281967874,0.0036238195057183907,103.0,0.9193992018699646,0.9581192536506219,0.923860870740941,0.7339759095927456,0.31979691982269287,0.22490169079428876,0.7703692358147871
119,3.933547450553439,119.77995300292969,0.9946450168065346,120.45304107666016,1.0,59050.0,0.008897342055806168,0.0026135797515926336,0.002466436478345179,0.0009977978151487763,0.0023866970369754935,103.0,0.9246838092803955,0.9607846457804121,0.9293649449618967,0.7335221485180492,0.316722571849823,0.2255347693225013,0.7724943503647215
120,3.9668825984394847,119.81981658935547,0.9949760414612986,120.87413787841797,1.0,59103.0,0.009716076264543072,0.002002008981890462,0.0014596917523125418,0.0009466315669703404,0.0014290653812905347,103.0,0.9316442012786865,0.9602501847057962,0.9284300289325415,0.7324336381887129,0.31793344020843506,0.22566733586140234,0.7744223393877745
121,4.000217746325531,119.89224243164062,0.995577460991954,121.24609375,1.0,59317.0,0.007868190537790087,0.0018389502272718379,0.0010439076485101377,0.0008407382643047631,0.0010559063665490848,103.0,0.9744418859481812,0.9590111884732314,0.9262605998280425,0.7364271791624766,0.3169446885585785,0.22525978621177697,0.7870334056604068
122,4.033552894211577,119.93779754638672,0.9959557477313981,120.95924377441406,1.0,59953.0,0.008676681818794718,0.0020716528126143775,0.0012556663789877575,0.0006859216557020696,0.001270437977974965,103.0,0.9689832329750061,0.9524850021405656,0.9170350107584274,0.7400599918529582,0.32314684987068176,0.22615447284936613,0.78358532585777
123,4.066888042097623,120.0169677734375,0.9966131721988595,120.35790252685547,1.0,60083.0,0.005280597229445905,0.0024025843949385807,0.001775811643107831,0.0004975709606048211,0.0017424315757582267,103.0,0.965027391910553,0.948759771205388,0.911772048666012,0.7448367341878859,0.32682791352272034,0.22596880965958396,0.781504398442596
124,4.100223189983669,119.96065521240234,0.9961455563181297,119.79975128173828,1.0,60245.0,0.009194968694694383,0.0024074230874351022,0.0020595515081446732,0.00030097266511779894,0.0019459790521713237,103.0,0.960128664970398,0.9482833983456441,0.909170885550668,0.7470672850375735,0.33098340034484863,0.22515562610054315,0.7800783238574218
125,4.133558337869715,119.84828186035156,0.9952124152387003,118.5202865600586,1.0,60754.0,0.012822126596449213,0.0017354784596795285,0.001595959619255137,0.00012284371114263187,0.0014058238140378097,103.0,0.9409129619598389,0.9459733789819053,0.9007472758995293,0.7507816265246351,0.3348386287689209,0.2253679514588302,0.773693643041662
126,4.166893485755762,119.99497985839844,0.9964305859682318,117.65680694580078,1.0,61132.0,0.006373964880298455,0.000300831475052282,0.0001760780860731382,-1.5661103319935308e-05,-5.444572048926887e-05,103.0,0.920175313949585,0.9441427293943162,0.8931328927566577,0.7564343694317957,0.3392484188079834,0.22480696891704613,0.7671268827500454
127,4.2002286336418075,119.97474670410156,0.9962625711578138,116.40654754638672,1.0,60664.0,0.00041233148539537856,-0.0016367187212685934,-0.001965824182843071,-0.00010592729737531216,-0.0021893092059661005,103.0,0.9043641090393066,0.9451019825047254,0.8957536595015165,0.7529259907410855,0.3347233533859253,0.2257512008042596,0.7624344881771213
128,4.233563781527853,119.97045135498047,0.9962269028553005,115.55232238769531,1.0,61237.0,0.0025923740363968384,-0.0035532438761442515,-0.004218481508113234,-0.00015710040800942556,-0.004402232750519864,103.0,0.8804502487182617,0.9428395686703572,0.887159723696458,0.7576679905472452,0.33956271409988403,0.22435445355901168,0.7549740760712655
129,4.2668989294139,119.83586883544922,0.9951093382792169,114.52690124511719,1.0,61222.0,0.004558949286650127,-0.004875576117972463,-0.005848519755000228,-0.00019547617722609666,-0.005988595311243444,103.0,0.8635719418525696,0.9438382716452692,0.8883244585279801,0.7569017741237559,0.336563378572464,0.22524571923100697,0.7499820066208867
130,4.300234077299946,119.97311401367188,0.9962490134016186,113.96743774414062,1.0,60352.0,-0.0049540343623754035,-0.005234013126990501,-0.006330821139842458,-0.0002596262857646889,-0.0064491091224435654,103.0,0.8476128578186035,0.9460719335454225,0.8911717921527041,0.7532136884407059,0.33131545782089233,0.22623118588223548,0.7455556035554897
131,4.333569225185991,120.08348083496094,0.9971654923788082,118.19683074951172,1.0,58764.0,-0.0030976555828216568,-0.0046372319851235464,-0.005599221834763917,-0.00038703784714422496,-0.005723868036442546,103.0,0.9729851484298706,0.9520000907585143,0.9139949629024573,0.7310228149180206,0.3284706175327301,0.2259224243027393,0.784711082358042
132,4.366904373072038,120.03047180175781,0.9967253087804733,117.59524536132812,1.0,58925.0,0.0016060676878835722,-0.0034832389307360018,-0.004094276277290759,-0.0006050130756025797,-0.00424203421483148,103.0,0.9676293730735779,0.9455070004242682,0.9025710649130251,0.7389455995585764,0.3347911238670349,0.22622959042913396,0.7814196439423136
133,4.400239520958084,119.94955444335938,0.9960533762468031,116.65274047851562,1.0,59256.0,0.006272000190527871,-0.002391078046118466,-0.002577498828669721,-0.0009147643765764775,-0.002743872504467664,103.0,0.9587239623069763,0.9434375140632735,0.8962974213581747,0.7436187034108878,0.3371812403202057,0.22608739301759406,0.7782590886043925
134,4.43357466884413,120.10440063476562,0.9973392090493083,116.4958724975586,1.0,59507.0,0.0036382201842468653,-0.001926084786582693,-0.001792141862751913,-0.0012865982422755017,-0.001958280763430829,103.0,0.9489662051200867,0.9388811400339456,0.8886853647470045,0.7466936030315958,0.344693660736084,0.22605214947172936,0.7741997166501665
135,4.466909816730176,120.19790649414062,0.9981156756844829,114.93879699707031,1.0,59898.0,-0.002134264141215869,-0.002347947337700132,-0.0021247182772580514,-0.0016593540648033422,-0.0022704831580581133,103.0,0.929851233959198,0.9365087315102341,0.881298206951818,0.7509873493900375,0.34654122591018677,0.22634436239170502,0.767813680586977
136,4.500244964616222,120.17539978027344,0.9979287813817932,114.18359375,1.0,59812.0,-0.003358098502369622,-0.0034958872986555443,-0.003421648934019124,-0.0019499166502992952,-0.003536750401529441,103.0,0.9150410890579224,0.9354533092578969,0.8785193606634121,0.7502289118846033,0.34680354595184326,0.22619002822201317,0.7631376483874482
137,4.5335801125022686,119.94390106201172,0.9960064309321275,113.17203521728516,1.0,59264.0,0.0023187557482728383,-0.004851622145028592,-0.00504312058782601,-0.0020690251690928495,-0.005128052362312209,103.0,0.8969300985336304,0.9381636969042476,0.880855156587473,0.7487744478698135,0.34015464782714844,0.22594380148582402,0.7584311934889861
138,4.566915260388314,120.08514404296875,0.997179303551007,111.93161010742188,1.0,58935.0,-0.004203821704161892,-0.005741778853034111,-0.006129296359517698,-0.0019445662602470464,-0.00619224991072726,103.0,0.8777278661727905,0.9382822883968213,0.8772206668363451,0.7449188533292886,0.33690693974494934,0.2254790434299004,0.7527931232650623
139,4.600250408274361,119.90670013427734,0.9956975168236817,111.09274291992188,1.0,58952.0,-0.001750047789942255,-0.0055964005656532305,-0.005962562592090853,-0.0015366502777339284,-0.006010895290784449,103.0,0.8628317713737488,0.9422750712444022,0.8805299226489347,0.7420572982226474,0.32807832956314087,0.2262600070489905,0.7491662978134271
140,4.633585556160407,119.92728424072266,0.9958684459181417,110.01437377929688,1.0,58779.0,-0.005396238175652435,-0.004170287698455051,-0.004271146460113304,-0.0008583042424816882,-0.00431187869933241,103.0,0.8465017080307007,0.9425815342214056,0.879157522244339,0.7390145466889624,0.3219742178916931,0.22638520437029308,0.744318855090503
141,4.666920704046452,120.2074966430664,0.998195311663629,116.33277893066406,1.0,57662.0,0.0023439164091899056,-0.001648077573215418,-0.0013471894158513277,2.7506399713398242e-05,-0.0013827961472977189,103.0,0.9686437845230103,0.9413420739250574,0.8967777739239013,0.728405042823577,0.3396322727203369,0.22673757610974962,0.7805811386162176
142,4.700255851932499,120.18852996826172,0.9980378136173623,116.04328918457031,1.0,57970.0,0.0025709383656677964,0.001408680092933869,0.002066929449125979,0.0010082772952550864,0.0020367832107045696,103.0,0.9665197134017944,0.9403944569029958,0.893048128342246,0.7323513062812673,0.34253183007240295,0.2261988983778867,0.7798147485707099
143,4.733590999818545,120.15909576416016,0.9977933938818447,115.32490539550781,1.0,58283.0,0.005491549738455781,0.0042564628126692,0.005070965741214768,0.0019455656356574126,0.005053582567289384,103.0,0.9567796587944031,0.9369513122751632,0.885592711425287,0.7378528927712369,0.34953969717025757,0.22642106595771616,0.7759875125155685
144,4.766926147704591,120.07108306884766,0.9970625421273266,113.76277923583984,1.0,58835.0,0.009522042875749426,0.006232568596152661,0.0069500503958380274,0.0026965384776425167,0.006957677247022449,103.0,0.9396625757217407,0.9293731055777457,0.8730177615365003,0.745331779371152,0.3539932370185852,0.22597481567812713,0.7690470859753332
145,4.800261295590637,119.94767761230469,0.9960377911625788,112.7029800415039,1.0,58949.0,0.012639676999937455,0.006980814942881091,0.007423549378705899,0.0031434609144560606,0.007469877128219769,103.0,0.9271560311317444,0.9320259885663879,0.8723133556124786,0.7456518714345346,0.3492398262023926,0.22579910697344954,0.7659934850864303
146,4.833596443476683,120.02230072021484,0.9966574566454968,110.5251693725586,1.0,59555.0,0.004661731961004445,0.0065493771651763885,0.006701324526186868,0.0032143417390496274,0.006792007288820373,103.0,0.9063021540641785,0.9259843841826884,0.8621274452187054,0.7519380823716573,0.350991815328598,0.22599176788464936,0.7581883886879958
147,4.86693159136273,119.93111419677734,0.9959002496265994,109.53478240966797,1.0,59128.0,0.005449250308597109,0.005326887063073054,0.005338331890572976,0.0028999786535445896,0.005466583674070118,103.0,0.8949580192565918,0.9298076489424075,0.863989987823028,0.7506792270776731,0.3446863293647766,0.22554147728715435,0.7558310225551484
148,4.900266739248775,119.87000274658203,0.9953927840792961,108.95401000976562,1.0,59148.0,0.006740631992981361,0.003856684845882613,0.003967710422440523,0.0022517944968900444,0.004113869282913554,103.0,0.8821032047271729,0.9305132886995334,0.8629708527760871,0.7493253943117755,0.341489315032959,0.2245138405016786,0.7523565154926994
149,4.933601887134821,119.78710174560547,0.9947043795053889,108.49141693115234,1.0,58902.0,0.006755258670277986,0.002619505497462899,0.003039749392330402,0.0013747056236649055,0.0031822336289552633,103.0,0.8725026249885559,0.9344843978133169,0.8650640046178398,0.7456987681829116,0.33567994832992554,0.22487941358923394,0.7503960042320491
150,4.966937035020868,119.98738861083984,0.9963675487373246,107.58717346191406,1.0,58724.0,-0.00018606278596372539,0.0018763948729346649,0.002679111332235064,0.00040385948950436105,0.0028050743305301634,103.0,0.8677831888198853,0.9339111777126899,0.8600912744363463,0.7446991985391093,0.33062583208084106,0.22501775388049103,0.7488092002980399
151,5.000272182906913,120.2994155883789,0.9989586006666139,113.09080505371094,1.0,57973.0,0.004506507825150108,0.0016247902039407318,0.002707223223446005,-0.0005174850627538049,0.002822306850625092,103.0,0.9563091397285461,0.9294096677188807,0.8675762855122212,0.7374386241636349,0.3597264587879181,0.22506169384587987,0.774232820079108
152,5.03360733079296,120.18694305419922,0.9980246359851727,112.98097229003906,1.0,58018.0,0.007521181415818479,0.001667189045136209,0.002795980620600343,-0.0012668203148978776,0.0029210917349536264,103.0,0.9565984010696411,0.928843922001218,0.8672653314488606,0.7370734558020174,0.3601008355617523,0.22476306629062173,0.7742378875630724
153,5.066942478679006,120.29507446289062,0.9989225522400952,113.2591781616211,1.0,58023.0,0.004271166068485321,0.0017446273859201113,0.0026617994259685463,-0.0017597221074585182,0.0028216980402547024,103.0,0.956183910369873,0.9293153864272213,0.8683108422522103,0.7379338412036271,0.36021509766578674,0.22456091264037442,0.7742718371896924
154,5.100277626565052,120.35868835449219,0.9994507978996975,113.76536560058594,1.0,58335.0,0.004714714896557337,0.001663785009151065,0.0022007603584864085,-0.001961556310546441,0.002408384205198323,103.0,0.9543060660362244,0.9279734864718151,0.8659809719722293,0.7400570884871551,0.3628632426261902,0.22358388836029178,0.7735684137567628
155,5.133612774451098,120.38961791992188,0.9997076350193937,114.0287094116211,1.0,58311.0,0.003879460878426222,0.0013601867676354918,0.0015068862307884648,-0.0018901434535550036,0.0017525315469688197,103.0,0.9527761340141296,0.927795213024415,0.8649482944898904,0.7391431106604133,0.36332640051841736,0.22305742172645457,0.7731701591150516
156,5.166947922337144,120.40161895751953,0.9998072908628279,114.79736328125,1.0,57827.0,0.004240429898109688,0.0008830090045797139,0.0007821401429289379,-0.0016053977414438802,0.0010360268669396043,103.0,0.9529758095741272,0.9291853286527054,0.8683659882062013,0.7369219201998191,0.3625135123729706,0.22354755259904932,0.7734795645156046
157,5.200283070223191,120.35958862304688,0.9994582736718051,115.55875396728516,1.0,57753.0,0.005995324644758271,0.00033030138217915027,0.00020190054095153127,-0.0011951293443798598,0.0004277512729042259,103.0,0.9498404860496521,0.9289733866638962,0.8678683358440255,0.7349860646245084,0.3644324541091919,0.22362777912111687,0.7724699366566463
158,5.233618218109236,120.44943237304688,1.000204330386542,116.27076721191406,1.0,57890.0,0.003206360912932582,-0.0002183111458940666,-0.00018455001181429213,-0.0007570399070437723,-1.1861523391672132e-05,103.0,0.9429070949554443,0.9316347095065355,0.8758852997063397,0.7359147767720939,0.3656006455421448,0.2223761822434659,0.771305569414574
159,5.266953365995282,120.43978881835938,1.0001242509293895,116.96279907226562,1.0,57538.0,0.004415079060902605,-0.0007345711987078693,-0.0004670413069495925,-0.0003788894670373597,-0.00034877335943440816,103.0,0.9375789761543274,0.9319058709027077,0.8798533143313984,0.7357612337280377,0.36452731490135193,0.22322958492110176,0.7696042435877547
160,5.300288513881329,120.41372680664062,0.999907833662275,117.04378509521484,1.0,57722.0,0.005628092608756907,-0.0012296875226581166,-0.0008024276744885747,-0.0001257060503142672,-0.0007181865485301821,103.0,0.9241126775741577,0.9295646951480082,0.8775336959911298,0.7388226861392349,0.3644500970840454,0.2238406696788562,0.7648568431234781
161,5.3336236617673745,120.37334442138672,0.9995725009354489,117.71041107177734,1.0,57702.0,0.006033375139347763,-0.0017149181657299514,-0.0013063525485882527,-2.9052126632588434e-05,-0.0012276480211970873,103.0,0.9565902948379517,0.9303548115027787,0.8762261273439396,0.737839496700936,0.3648105263710022,0.223096005319421,0.7749465902631959
162,5.366958809653421,120.41082763671875,0.9998837591419285,118.97028350830078,1.0,57427.0,0.006024763310689574,-0.002168133488433033,-0.001974949048699565,-8.466116609230989e-05,-0.0018834237881455809,103.0,0.9546927809715271,0.9345255715952426,0.8874745328852282,0.7346612424521544,0.3602406680583954,0.22427335994268754,0.7751845552017311
163,5.400293957539467,120.47383880615234,1.0004069998354588,119.76092529296875,1.0,57483.0,0.006271133271543217,-0.002534276332614936,-0.002681450286823396,-0.0002551537660304508,-0.0025783028280176876,103.0,0.9378599524497986,0.9342182326368955,0.8870100725431866,0.7363950807071483,0.35939472913742065,0.22422495516269536,0.7700675528616244
164,5.433629105425513,120.58122253417969,1.0012987073982917,119.98844146728516,1.0,57553.0,-0.0002179685895951633,-0.002760914178028017,-0.003246671607555032,-0.000479959583363331,-0.0031506343398141064,103.0,0.9173344969749451,0.9351670054847996,0.8882421420256111,0.7372540479606476,0.358640193939209,0.22411098585775774,0.7641699032921319
165,5.466964253311559,120.45178985595703,1.0002239067728238,119.96939086914062,1.0,58061.0,0.009259451999357127,-0.0028399700797940783,-0.003538773683162206,-0.0006827503889472774,-0.003469340209403012,103.0,0.8835633397102356,0.9290688528731277,0.881555605311655,0.7398567714970182,0.3607581555843353,0.2246291859931699,0.7524103779327186
166,5.500299401197605,120.47867584228516,1.000447166272037,120.82054901123047,1.0,57924.0,0.007162378734609454,-0.002818862236566128,-0.0035423004217647455,-0.0007916576693996586,-0.003509250811562308,103.0,0.8540239930152893,0.9327509610293948,0.8872315447828188,0.737716192465422,0.3576919436454773,0.2244453501108026,0.744505868139775
167,5.533634549083651,120.4730453491211,1.0004004110193638,121.49761962890625,1.0,58094.0,0.010842204011446532,-0.002768338829810157,-0.0033573230754329227,-0.000744524092232558,-0.0033531977558339246,103.0,0.8202944993972778,0.9322075716367726,0.8870107067855545,0.7397305625588917,0.3566243350505829,0.22445055644688924,0.7342501314389988
168,5.566969696969697,120.57769012451172,1.0012693744958696,122.09046173095703,1.0,58225.0,0.007856227862955756,-0.002729863615414972,-0.0031320725561541003,-0.0005077784813956898,-0.0031430750388211476,103.0,0.7896555066108704,0.9317017317876055,0.8854443967367969,0.7407855061769234,0.355489581823349,0.22423949414114683,0.7249741861019331
169,5.600304844855743,120.59292602539062,1.0013958924356905,122.82160949707031,1.0,58427.0,0.007714248264610923,-0.002680421142758746,-0.0029700812651450377,-7.928122328564302e-05,-0.002986389785950841,103.0,0.7622194886207581,0.9325368978953795,0.8864223732178617,0.7408294977620551,0.3548164665699005,0.22365501413772554,0.7170690682325271
170,5.63363999274179,120.55538940429688,1.0010841907512047,123.2452163696289,1.0,58438.0,0.01081437706706101,-0.0025369045650714623,-0.002864989592233208,0.0005053923890065017,-0.002889064830673257,103.0,0.7347976565361023,0.9352419088036323,0.8902426503302645,0.7403963105615244,0.3528178930282593,0.223507500506791,0.7095482740603806
171,5.6669751406278355,120.5011978149414,1.0006341872827282,124.01812744140625,1.0,58300.0,0.012095727340370122,-0.002194855381617864,-0.002699361267707156,0.0011760652865697265,-0.0027433169139797656,103.0,0.9688175320625305,0.9400057175528874,0.8958319039451115,0.7400449358331534,0.3470301032066345,0.2240063976440422,0.7808454094781726
172,5.700310288513881,120.5174331665039,1.0007690045966686,124.04134368896484,1.0,58023.0,0.011196968255166695,-0.0015804333758715197,-0.002309798093581577,0.0018360959778878706,-0.0023876350951964336,103.0,0.9624059796333313,0.9423849163262844,0.9010564776037089,0.7349241934870996,0.34516069293022156,0.22417702119035857,0.7794826187334988
173,5.733645436399928,120.36585998535156,0.9995103506605545,123.9949951171875,1.0,58120.0,0.017682136684149696,-0.0006951031606717279,-0.0015869455349888889,0.0023774938216956074,-0.001705389277867978,103.0,0.9461350440979004,0.9426531314521679,0.9015829318651066,0.7346175236361798,0.3458014130592346,0.22430355427473583,0.7746430852374648
174,5.766980584285974,120.38278198242188,0.9996508698345768,123.58199310302734,1.0,58047.0,0.014562798148568923,0.0003602169314903612,-0.0005606996017075889,0.0026952621955035278,-0.0007173997563459498,103.0,0.9332660436630249,0.9431667441900529,0.9046806897858631,0.7320847521755581,0.34495294094085693,0.22461848909067977,0.7708478013282847
175,5.80031573217202,120.36322021484375,0.999488430176239,123.3261947631836,1.0,58579.0,0.016482419804505377,0.0013900744255684176,0.0005743891971932797,0.002710483824135783,0.0003923052487680935,103.0,0.9141455888748169,0.9406954710732515,0.900390925075539,0.7337600521081243,0.3475560247898102,0.22457850038830574,0.7645018443530969
176,5.833650880058066,120.3253173828125,0.9991736874997094,122.67444610595703,1.0,58617.0,0.01628674464048252,0.0021449003381995876,0.0015128140966342643,0.002381614572034545,0.001323290533361336,103.0,0.8943829536437988,0.940125447111475,0.9009843560741765,0.7342360397825488,0.3457968831062317,0.22455344840544128,0.7584355581899201
177,5.866986027944112,120.20574951171875,0.9981808035974202,122.79750061035156,1.0,58608.0,0.022723108800090153,0.002396046247529024,0.0019539516906882026,0.0017199086043166699,0.00177792422995059,103.0,0.8754097819328308,0.9393711893711894,0.8988533988533989,0.7366978819684495,0.34679949283599854,0.22467475331531644,0.7525307812595833
178,5.900321175830158,120.2971420288086,0.9989397211743423,122.8726806640625,1.0,58916.0,0.01911261891616106,0.0020264759843267423,0.0017318718142395077,0.0007875338229960104,0.001584259114870374,103.0,0.8583937287330627,0.9410742978704144,0.9006212234367574,0.7357694132927043,0.3460669219493866,0.22471713664860005,0.7478432657578024
179,5.933656323716204,120.31770324707031,0.9991104602067995,123.05166625976562,1.0,58958.0,0.018896289979140557,0.001098722928586738,0.00090019475760492,-0.0003043713432916464,0.0007837356708419969,103.0,0.8370113968849182,0.9405169781878625,0.9003697547406628,0.7376573330330556,0.34547755122184753,0.22474538948527387,0.7412835857153864
180,5.966991471602251,120.32392120361328,0.9991620937175425,123.1703872680664,1.0,58776.0,0.017963454017357217,-0.00013916987448841925,-0.0002696033136325347,-0.001414971836936548,-0.00037112094939794585,103.0,0.810892641544342,0.9394424027947915,0.8967265550564857,0.7385868131039596,0.346823513507843,0.22362683622563742,0.7334030259168731
181,6.0003266194882965,120.2967529296875,0.9989364901202957,123.58914947509766,1.0,58987.0,0.017348762808899076,-0.0013233888594758009,-0.0013791967204003646,-0.002392735084024275,-0.001495968797716664,103.0,0.9688712954521179,0.9435355812862721,0.90085951141777,0.7387411081054003,0.3410818874835968,0.22412583909427913,0.7817201161383475
182,6.033661767374342,120.37344360351562,0.9995733245374608,124.34732818603516,1.0,58704.0,0.013614568524119297,-0.0020954330347293364,-0.0020452214035822608,-0.0031017991770953567,-0.0022081550114691805,103.0,0.9649996161460876,0.948941582629236,0.9083367402562006,0.7363588469933017,0.3398836851119995,0.2229246632046361,0.7821503478602081
183,6.066996915260389,120.3719482421875,0.999560907153282,125.07950592041016,1.0,58329.0,0.015236850894303211,-0.0022227636511251364,-0.002030782200299312,-0.0034427809109519327,-0.0022515308583693086,103.0,0.954290509223938,0.9498419882619852,0.9116905827290027,0.7335228058702952,0.3378010094165802,0.22258831222726644,0.7792299873872243
184,6.100332063146435,120.34185028076172,0.9993109756196852,125.30638885498047,1.0,58449.0,0.015730478670801795,-0.0016662677139458752,-0.00131285766752463,-0.0033711763238767362,-0.0015731224034179212,103.0,0.9389808177947998,0.951992335198207,0.9155331998836592,0.7329579654895666,0.3364706337451935,0.22229885634028893,0.775232557869934
185,6.13366721103248,120.2196044921875,0.998295854463076,124.89289093017578,1.0,58550.0,0.020902847174326333,-0.0005692960704589867,-6.450597620533917e-05,-0.002901142731652082,-0.0003189455775124581,103.0,0.9159098863601685,0.950606319385141,0.9140734415029889,0.7363390555241149,0.33695417642593384,0.22273784820474124,0.7678769761133875
186,6.167002358918527,120.32947540283203,0.9992082154302063,125.18754577636719,1.0,58583.0,0.016284225112039974,0.0008160929737940131,0.0014290648694170022,-0.0021055177765492592,0.0012293686351309333,103.0,0.8935375213623047,0.9523240530529334,0.9174504549101276,0.739852491727918,0.3363204896450043,0.22100982546538356,0.7619403045788481
187,6.200337506804573,120.3128890991211,0.9990704838322241,125.09587097167969,1.0,59021.0,0.018583780902318436,0.0022220843426384324,0.002875296829542545,-0.0010977952469164024,0.0027579370382178614,103.0,0.8655632138252258,0.9503001756436974,0.9110994391826638,0.7429164831015168,0.3363606035709381,0.22074391088174208,0.7530952258821436
188,6.233672654690619,120.3412094116211,0.9993056538836086,125.48892974853516,1.0,59046.0,0.01897759342464883,0.0034351817232008623,0.004054456670252886,-1.660222367174571e-05,0.004006892104816367,103.0,0.841547429561615,0.9514277004369475,0.9145073332655895,0.7453420853319869,0.33577340841293335,0.21969199697046202,0.746382754583629
189,6.267007802576665,120.24842071533203,0.9985351425245197,125.2439956665039,1.0,59547.0,0.02333461082185906,0.004324422588945583,0.004851253026565064,0.0010016120104752364,0.004828647875083535,103.0,0.8074425458908081,0.949356530695641,0.9091641896317195,0.7527780235894972,0.3379378616809845,0.21981467200991112,0.7356089620391705
190,6.300342950462711,120.336669921875,0.9992679582530661,125.31998443603516,1.0,59432.0,0.01686015641597316,0.004832980900190856,0.005241816972933765,0.0018387343246683825,0.005190515313496724,103.0,0.7852188944816589,0.9517880378696101,0.9150962444474358,0.7509824486030907,0.3352867066860199,0.219588319286319,0.7295950139546364
191,6.3336780983487575,120.22805786132812,0.9983660506960862,126.52994537353516,1.0,58747.0,0.018500343847677125,0.00495246338424015,0.005258679600697936,0.0024150166964128903,0.005150589867544385,103.0,0.9758517146110535,0.9589255621563654,0.9236216317428975,0.7445754119138149,0.3277927041053772,0.22062103929024082,0.7883626970643592
192,6.367013246234803,120.18938446044922,0.9980449092654645,126.43973541259766,1.0,58374.0,0.018537494432375234,0.00470199196788776,0.004958631163997783,0.002691281997546893,0.004808144928421345,103.0,0.9738205075263977,0.9615867795022899,0.9302600472813238,0.740401567712231,0.3245972692966461,0.22221940360979694,0.7880989664115324
193,6.40034839412085,120.12606811523438,0.9975191344118978,126.58789825439453,1.0,58418.0,0.020017040941975928,0.004124716363379581,0.004406517554470995,0.00267211491951076,0.004266655628072291,103.0,0.9661639928817749,0.9630079769933925,0.9319901400253346,0.7380576366691514,0.32418757677078247,0.22237242738563,0.7861267066357546
194,6.433683542006896,120.12439727783203,0.997505259885698,125.55523681640625,1.0,58188.0,0.0120765651327156,0.00329602050924393,0.003671913108481254,0.002393679532606411,0.003602775739217525,103.0,0.9597369432449341,0.964511583144291,0.9338351550147796,0.7369954276594937,0.3203856647014618,0.22393069294390333,0.7842628401707722
195,6.467018689892941,120.08247375488281,0.9971571296506879,125.55652618408203,1.0,58431.0,0.014870282528075651,0.0023246503021466113,0.0028267560652468888,0.001916529704985863,0.002862575863020188,103.0,0.9545482993125916,0.9638605078354526,0.934846228885352,0.7373927309439677,0.3219652771949768,0.223889449772842,0.7825517267980723
196,6.500353837778988,120.10234832763672,0.9973221668230631,125.4807357788086,1.0,58150.0,0.01303259500576065,0.00133262081702663,0.001935708304579086,0.0013080686064700386,0.0020636239829958615,103.0,0.9547427296638489,0.9637718543995414,0.93463456577816,0.737494926948052,0.32117950916290283,0.22310014204545456,0.7827457540899492
197,6.533688985665034,120.1940689086914,0.9980838086220243,125.01861572265625,1.0,58329.0,0.006083154980270289,0.00041780035249632913,0.0010422581015577632,0.0006356407920883507,0.0012124367498323487,103.0,0.9546191096305847,0.964694520164355,0.9373039140050404,0.7387813002672476,0.32014334201812744,0.22323407596924752,0.7829125477364146
198,6.56702413355108,120.127685546875,0.9975325654600911,124.6466064453125,1.0,58257.0,0.006695790283820724,-0.0003799582099810543,0.00016193236120588765,-4.0828677947406414e-05,0.00032009057542419476,103.0,0.9595637321472168,0.9644506239593525,0.9383593387919048,0.7373277138626267,0.31827548146247864,0.22333599119109998,0.7843145773957831
199,6.600359281437126,120.12770080566406,0.9975326921680928,124.73884582519531,1.0,58206.0,0.007170251433668229,-0.0010848095284304664,-0.0007081833489728479,-0.0006725529820776889,-0.0005861435876601631,103.0,0.9654595851898193,0.9638639773677399,0.9381850668315981,0.7380273118034159,0.3197246491909027,0.2227674439245819,0.7860503811139644
200,6.633694429323172,120.15296173095703,0.9977424572651117,124.5048599243164,1.0,58274.0,0.006093465913918683,-0.0017542208762429355,-0.0015663809706860487,-0.0012187430553047788,-0.0014591023007585187,103.0,0.9698355197906494,0.9621843932685817,0.9363524041596596,0.7384400937717798,0.32010287046432495,0.2225685864537794,0.7869830369635844
201,6.6670295772092185,120.20098876953125,0.9981412707008512,123.77833557128906,1.0,58394.0,0.0028326256980801268,-0.0024290697098526977,-0.0023850960725136845,-0.0016456144051318865,-0.0022428820457262434,103.0,0.9688851237297058,0.9597390142822894,0.9294448059732164,0.740232740917273,0.32092761993408203,0.2234743807519712,0.7859054145390899
202,6.700364725095264,120.3073501586914,0.9990244888275622,123.60662078857422,1.0,59064.0,0.0005571472353011475,-0.0030974093963958534,-0.003108721727616814,-0.0019240702560545735,-0.0028901554197834846,103.0,0.9659786224365234,0.9539764774933405,0.9216443180279019,0.7440102788904844,0.3276257812976837,0.22354067467815483,0.7835795711686611
203,6.73369987298131,120.32206726074219,0.999146698695321,123.24962615966797,1.0,59134.0,-1.292828713161942e-05,-0.003694410246367781,-0.003674982187092888,-0.0020302983680746596,-0.0033793394618806686,103.0,0.966655969619751,0.9539689518720195,0.9196401393445395,0.7453051347331804,0.32672783732414246,0.22357641602177913,0.7837737456495742
204,6.767035020867357,120.35807800292969,0.9994457295796245,122.13896179199219,1.0,59845.0,-0.002561767859791897,-0.0041339285641430025,-0.0040457399386843495,-0.0019492769830728373,-0.0037191207116317017,103.0,0.9583171606063843,0.9491965354944719,0.9116216893641909,0.7495146847016093,0.3308575749397278,0.22271901809756403,0.7802504784360205
205,6.800370168753402,120.3836898803711,0.9996584089606854,121.65508270263672,1.0,59634.0,-0.003669473963014702,-0.0043462252348795425,-0.004223341769315312,-0.0016791835668743006,-0.003932984356331457,103.0,0.9514021277427673,0.9482733563627014,0.9096823959486199,0.7503586078465914,0.33225154876708984,0.22407328182801922,0.7776743210479017
206,6.833705316639449,120.3582992553711,0.999447566845651,121.6145248413086,1.0,59836.0,-0.0008822000498759919,-0.004296364796421434,-0.004236869225574638,-0.001236471660719138,-0.004029416369973472,103.0,0.9428718090057373,0.9475677964213295,0.9075640082893242,0.7524553262660177,0.3346134424209595,0.2231737528451604,0.7751187412380215
207,6.867040464525495,120.44461822509766,1.0001643540119667,121.06327056884766,1.0,59939.0,-0.004256278316399242,-0.003976540284746664,-0.004104981227734951,-0.0006600554817074789,-0.003977243501948731,103.0,0.9292131662368774,0.9450441281970003,0.8999315971237425,0.7557177799631843,0.3392149806022644,0.22354187154852864,0.7703166076106076
208,6.9003756124115405,120.37309265136719,0.9995704102534189,120.43209838867188,1.0,59897.0,-0.0021884939970029382,-0.003388022235988811,-0.003803244220806899,-7.618437452625116e-06,-0.0037020537547477602,103.0,0.912958025932312,0.9451001997874129,0.8971567858156502,0.7568390594003108,0.33963707089424133,0.22352510076951265,0.7654574375726443
209,6.933710760297587,120.33428192138672,0.9992481284507807,119.94027709960938,1.0,59899.0,-0.002292908788415815,-0.0025375519309803435,-0.0032674525380321055,0.0006467530000629206,-0.003124033410538392,103.0,0.8961538672447205,0.9449128254784442,0.896024975375215,0.7534844520479018,0.33839622139930725,0.2233194122974741,0.7604104840835324
210,6.967045908183633,120.36433410644531,0.9994976798603722,119.4178466796875,1.0,59965.0,-0.001540532030309516,-0.0014615845588685774,-0.002444416401222946,0.001225345517359048,-0.002217813533434221,103.0,0.8761823177337646,0.9445509880763779,0.890419411323272,0.7571338383838384,0.3426840305328369,0.22238636363636363,0.7545151696119512
211,7.0003810560696795,120.35718536376953,0.9994383171615179,122.04998016357422,1.0,58052.0,-0.003212083589442083,-0.0002670234171372233,-0.0013679946196060385,0.0016567521315686987,-0.0010749586482351604,103.0,0.9748316407203674,0.954523530627713,0.9172982842968374,0.7333872353327606,0.3290966749191284,0.22311637778563848,0.7864570993159109
212,7.033716203955725,120.33470916748047,0.9992516762748318,120.97489929199219,1.0,58878.0,-0.0009887742455919613,0.0008448221271823771,-0.00021187507858348178,0.001889587891528879,7.972440338668801e-05,103.0,0.9693761467933655,0.9478639446539172,0.9059241142701858,0.7395897448780917,0.3369622230529785,0.2221984951450213,0.7833391311724847
213,7.067051351841771,120.3065185546875,0.9990175832414628,119.84002685546875,1.0,59209.0,-0.000458195146087248,0.0016065324260209884,0.0007284540381325083,0.001899363912691192,0.0009358891329208608,103.0,0.9583039283752441,0.9413433768514922,0.8979547028323397,0.74256295776061,0.3415895998477936,0.2240393297883014,0.778019156767786
214,7.100386499727818,120.36235809326172,0.999481271174136,119.38971710205078,1.0,59792.0,0.0018168289863075282,0.0017753517962974712,0.0011386732435514912,0.0016939971389785403,0.0012117314369614245,103.0,0.9460886716842651,0.9381076621175631,0.8886974846133262,0.7482417719934927,0.3483665883541107,0.22310098861218872,0.7737333193122327
215,7.133721647613863,120.30802917480469,0.9990301273336434,118.3219223022461,1.0,59553.0,0.0014391589654665915,0.0012547625953518778,0.0008370552910279835,0.0013096788879813927,0.0007855629892010013,103.0,0.9342369437217712,0.9383350404961407,0.8888049300622974,0.7492828384499245,0.3470327854156494,0.22302466029189733,0.7702499111821871
216,7.167056795499909,120.32735443115234,0.9991906030179528,116.8267593383789,1.0,59885.0,-0.0028599349171582467,0.0001837105920980374,-0.00010072413732649454,0.0008034952690183287,-0.0002144696598257741,103.0,0.9160194396972656,0.9379087695861513,0.8841613091759205,0.7512859114289299,0.3472966253757477,0.2226947685359428,0.764744070598529
217,7.200391943385956,120.19593811035156,0.9980993303522476,116.08121490478516,1.0,59545.0,-0.0013223088496181479,-0.0010664128121473698,-0.0013190174854264952,0.00024312688041038544,-0.0014179482799457303,103.0,0.9071841835975647,0.9406163405827526,0.8878159375262407,0.7498331465414111,0.3433093726634979,0.2233947438012366,0.7626303914647102
218,7.2337270912720015,120.14812469482422,0.9977022908285337,114.91461944580078,1.0,59727.0,-7.378121337797694e-05,-0.0020070955779917235,-0.002294255939168378,-0.00030607132180955913,-0.002331859647513547,103.0,0.8943676948547363,0.9398206283032241,0.8824819595827683,0.7502449441024996,0.3433513641357422,0.2238412259766361,0.7584972203368998
219,7.267062239158048,120.22809600830078,0.9983663674660908,114.34440612792969,1.0,59707.0,-0.004744221362237344,-0.002224434206892264,-0.0025463611603410074,-0.0007896342242953279,-0.002530794769117511,103.0,0.8834920525550842,0.9416651313916291,0.8855243103823672,0.7486114071492157,0.34012535214424133,0.22414333538122047,0.7556352315381883
220,7.300397387044094,120.24317932128906,0.9984916183258933,113.83641052246094,1.0,59392.0,-0.008159237828384402,-0.0015658410388848581,-0.001856999496687672,-0.0011695411203219601,-0.0018418699965326143,103.0,0.874282956123352,0.9421246408045977,0.8866177262931034,0.747727558856855,0.3359280526638031,0.22400856099710437,0.7530143348387343
221,7.33373253493014,120.20497131347656,0.9981743414893272,118.21189880371094,1.0,58213.0,0.002661596250503384,-0.00022814375304836383,-0.00038750166426545444,-0.001423443035848014,-0.00043383412746541785,103.0,0.969592809677124,0.9424469906492822,0.9007953549894353,0.7347250444901616,0.34046489000320435,0.2252148780149184,0.7814466149624741
222,7.367067682816186,120.26415252685547,0.9986657784743997,117.67528533935547,1.0,58534.0,0.0019517802887706326,0.0013098497357168725,0.0013702036765535326,-0.0015452158964855255,0.0012307852149407107,103.0,0.9680303931236267,0.9391009214018063,0.8943520005466908,0.7392710096238855,0.34259656071662903,0.22449417767561697,0.7802855127524161
223,7.400402830702232,120.2463150024414,0.998517656820268,117.28419494628906,1.0,58789.0,0.004589422681527622,0.0024901960365994466,0.002797221300016966,-0.0015343614663709897,0.002581712974048257,103.0,0.9597446918487549,0.9341543486026298,0.8863903111126231,0.7430452862144364,0.34664708375930786,0.22500284381754065,0.7764614259417757
224,7.433737978588279,120.33123779296875,0.9992228502044169,116.61201477050781,1.0,59428.0,0.0036263931187741627,0.002919580645055392,0.003416137810421717,-0.0013973525479608277,0.0031738146875888097,103.0,0.9486595392227173,0.9302124699916986,0.8773137241704247,0.7487369442239609,0.3522281348705292,0.224918421085787,0.7721672950475825
225,7.467073126474324,120.31719970703125,0.9991062788427393,115.8148422241211,1.0,59222.0,0.003405158045827028,0.002536990181597032,0.003100557979045593,-0.001141785141839586,0.002881640581710585,103.0,0.9403730034828186,0.9312755394954578,0.8787106142987403,0.7506622894299875,0.351712167263031,0.22467139036416411,0.7699965078458771
226,7.50040827436037,120.30934143066406,0.9990410242218002,115.3739013671875,1.0,59279.0,0.002408207720566713,0.0016300132773165738,0.002129155126774841,-0.0007798076954380696,0.0019548917923569286,103.0,0.9328792691230774,0.9309873648340896,0.8780175104168424,0.7519185154178876,0.35112810134887695,0.22428555120057841,0.7677535117053299
227,7.533743422246417,120.34417724609375,0.9993302985899633,114.80824279785156,1.0,59058.0,8.401899877230612e-05,0.0007005040748768051,0.0010607234888342068,-0.00033148772728723867,0.0009155841367580698,103.0,0.920839250087738,0.9299332859223136,0.8738020251278404,0.7537234381979453,0.35154539346694946,0.2250398825856678,0.7637271199897664
228,7.5670785701324625,120.27478790283203,0.9987540939516708,114.80889892578125,1.0,58801.0,0.0026775289515799106,0.00024713074235262634,0.0004883047909520243,0.00017161061975493183,0.0003360589923599666,103.0,0.913623034954071,0.9310442566169509,0.8751721909491336,0.7510665474517818,0.3486364483833313,0.22294034998084047,0.7622599046442909
229,7.600413718018509,120.17182159423828,0.9978990683553656,113.98763275146484,1.0,58538.0,0.004369333601275505,0.0005600609803662333,0.0007819365399103619,0.0006831240490319755,0.0005918263516236459,103.0,0.9045984148979187,0.9338947919869715,0.8763025726878267,0.750573784154582,0.3445470333099365,0.2242566449974997,0.7600018934666184
230,7.633748865904555,120.19697570800781,0.9981079464963717,113.80371856689453,1.0,58575.0,0.0012388974688732346,0.001606793580088437,0.0019297536433021136,0.0011440979517370353,0.00169561607126836,103.0,0.8993385434150696,0.9339194764546878,0.8773367477592829,0.7497408066353501,0.340562641620636,0.22425025919336464,0.75843138029952
231,7.667084013790601,120.30387878417969,0.9989956627571474,118.57286834716797,1.0,57355.0,0.006764040191723608,0.003044566633283875,0.003540244381774916,0.0014914370905123962,0.0032840489016544737,103.0,0.9638928174972534,0.9366169761427368,0.8925812919536221,0.7344260195915231,0.3431125581264496,0.22429092771624304,0.7784639037416116
232,7.700419161676647,120.2757797241211,0.9987623299717893,118.32886505126953,1.0,57450.0,0.006559343511579274,0.004346670309547747,0.004998597350339751,0.0016656666424604983,0.00475557332377996,103.0,0.9629201889038086,0.9364258775747026,0.8922193211488251,0.7370203594658046,0.3422047793865204,0.2241978729682228,0.7781429514711736
233,7.733754309562693,120.34427642822266,0.9993311221919752,118.27205657958984,1.0,57765.0,0.00703369407518234,0.004992725170485928,0.005708105835758154,0.0016278427003001382,0.005509124046947463,103.0,0.9583128690719604,0.9325427738826856,0.8872846879598373,0.7414419386720404,0.344683974981308,0.22415895467789343,0.7757977632566809
234,7.767089457448739,120.3021240234375,0.9989810913369376,118.0178451538086,1.0,58013.0,0.008115836631316597,0.0046544752824068955,0.005317794652295646,0.0013686939438631335,0.005175290013041368,103.0,0.9530934691429138,0.9341354523986003,0.885456707979246,0.7448354667659558,0.3456042408943176,0.2234776021672423,0.7747663834090758
235,7.800424605334785,120.40927124023438,0.9998708349257425,117.40509796142578,1.0,58246.0,0.0036962748269109835,0.003313182666282815,0.003849011332304119,0.0009155756624782214,0.0037545423360897177,103.0,0.9453046917915344,0.9319037644931268,0.880678501528002,0.7495881807886338,0.3483811914920807,0.22278132399876455,0.772011083860989
236,7.833759753220831,120.33808135986328,0.9992796787432348,116.83265686035156,1.0,58028.0,0.0041695811968895935,0.0012701975252568188,0.0016785816744968984,0.00033349302453738647,0.0016111247540473946,103.0,0.9387305974960327,0.9297810252521771,0.8774212449162473,0.7519502397304652,0.35009777545928955,0.22313075029156407,0.7694382855035413
237,7.867094901106878,120.36226654052734,0.9994805109261251,116.03526306152344,1.0,58253.0,0.0033693734476936132,-0.000951357284304734,-0.0006063226927365088,-0.000286158104162223,-0.0006694244435232656,103.0,0.9298290014266968,0.9282955384272055,0.8730880813005338,0.7528269944041664,0.35100042819976807,0.22401426743690148,0.7662197315474302
238,7.900430048992924,120.42636108398438,1.0000127478877847,115.67060089111328,1.0,58049.0,-0.00164315033729584,-0.0027806167602812035,-0.0024195149717120995,-0.0008401275135922863,-0.0024915858939868088,103.0,0.9253686666488647,0.9277621779301395,0.872297541731985,0.7530713646329281,0.3497351109981537,0.22352529092017695,0.7648460862931589
239,7.933765196878969,120.45645904541016,1.0002626794213818,114.81634521484375,1.0,58348.0,-0.00390418877641846,-0.0037894287824360167,-0.0033713704671600145,-0.001233144561236529,-0.003450135358491731,103.0,0.9136191010475159,0.9272925664404378,0.8677418249125934,0.7550988715187907,0.3498215675354004,0.22388446008903612,0.761131979906557
240,7.967100344765016,120.42161560058594,0.9999733416992177,114.33155059814453,1.0,57683.0,-0.005731703625750595,-0.003829708466787737,-0.0033788266272534568,-0.0013986533950098613,-0.0034479779538379093,103.0,0.9108964800834656,0.9291356783338823,0.8710018549659345,0.7520697792670048,0.34681791067123413,0.22427932567569328,0.7606969984733716
241,8.000435492651063,120.37641143798828,0.9995979692438155,118.18016052246094,1.0,56660.0,0.0030164429835694007,-0.003063830420965838,-0.002657622072453919,-0.0013098096170070165,-0.002691681953186854,103.0,0.9608089923858643,0.9358395105306507,0.8897987998588069,0.7342612031205453,0.34493759274482727,0.22526760490371406,0.7771490543676792
242,8.033770640537108,120.43514251708984,1.0000856683428343,117.87655639648438,1.0,56652.0,-0.0006624521023185226,-0.0018788157954815578,-0.0016122074197264758,-0.0009899310142536671,-0.0015903567854026873,103.0,0.9607582092285156,0.9338652357080656,0.8856704088116925,0.7341004509407557,0.3480020761489868,0.22455035505105478,0.7767837006853602
243,8.067105788423154,120.44770812988281,1.000190012382336,117.4351577758789,1.0,56646.0,-0.0018214800306465828,-0.000728340981956146,-0.0006762288951486459,-0.000503299900594981,-0.0005917948557088101,103.0,0.9589723348617554,0.9338935376431404,0.8829926208381881,0.7344128819800081,0.3483971953392029,0.2254735450078438,0.7760703758677429
244,8.1004409363092,120.4464340209961,1.0001794322641837,116.8897933959961,1.0,57020.0,-0.00011230965817471406,2.5722420294215862e-05,-0.0001679867299227421,5.3533553665375026e-05,-3.5134699724721185e-05,103.0,0.9538421034812927,0.932859815269496,0.877639424763241,0.7397221177172658,0.3515160083770752,0.22544529922291556,0.7742785250171786
245,8.133776084195246,120.39787292480469,0.9997761840483803,116.84171295166016,1.0,57178.0,0.0011070274939026792,0.0002131042880144424,-0.00020877312997879331,0.0005729871290495815,-5.569794882406242e-05,103.0,0.9518160223960876,0.9320950948500006,0.8776977159047186,0.7401299609081731,0.35253044962882996,0.22542522070054624,0.7734835362912171
246,8.167111232081293,120.41348266601562,0.9999058063342458,116.98919677734375,1.0,56908.0,-0.0008039139201743151,-0.00012699705989322634,-0.0007198901724982663,0.0009566627202008097,-0.0005738930180691418,103.0,0.9516383409500122,0.9323235163187368,0.8768362971814156,0.7406713261228899,0.35285329818725586,0.22498145328179298,0.7735760907083292
247,8.200446379967339,120.46444702148438,1.0003290110603364,117.07118225097656,1.0,56400.0,-0.0042673824977517705,-0.0007985935309501006,-0.0014835090103867774,0.001133512436671223,-0.0013554984229374267,103.0,0.9515180587768555,0.9337884160756501,0.8782978723404256,0.7399535561065848,0.35250744223594666,0.22552839768567717,0.7737968421148337
248,8.233781527853385,120.45075225830078,1.0002152906286996,117.90719604492188,1.0,56326.0,-0.0022687148424299086,-0.0015391442296738556,-0.0022349027155778686,0.0010730751911725632,-0.002112811221847851,103.0,0.9534069895744324,0.9369207825870823,0.8810851116713418,0.7364801255230126,0.3516426384449005,0.22557531380753137,0.7751372297575941
249,8.26711667573943,120.4636001586914,1.0003219787662352,118.51791381835938,1.0,55816.0,-0.0026935463572941853,-0.002109499180545855,-0.0027517321892164205,0.00078834415152899,-0.002610302605739575,103.0,0.9561293721199036,0.936529549472075,0.8864483302278916,0.7336295050077548,0.3501499891281128,0.22461291764149208,0.7760486154756914
250,8.300451823625476,120.52107238769531,1.0007992244551034,118.62749481201172,1.0,56113.0,-0.004220147676201491,-0.002357396492077155,-0.0029156649792706785,0.0003330377149068722,-0.002735624003926188,103.0,0.9510345458984375,0.9307112433838861,0.8797070197636911,0.735744161957334,0.3564797639846802,0.22456632619612676,0.7730749093762774
251,8.333786971511524,120.49905395507812,1.0006163848084721,119.12398529052734,1.0,55605.0,-0.003362370296368211,-0.0022469018026318737,-0.0027348226415217086,-0.00021025188651996036,-0.0025195361136311502,103.0,0.9541972875595093,0.9323981656325869,0.8815394299073824,0.7309618645738849,0.3554798662662506,0.22401440759290664,0.7745558461574182
252,8.36712211939757,120.53700256347656,1.0009315076090073,119.43901062011719,1.0,55167.0,-0.0070500211678698466,-0.00185686187428311,-0.0023261577402572055,-0.000746774968553951,-0.002103785034598459,103.0,0.9560083150863647,0.9331665669693838,0.8833360523501369,0.7274129746835443,0.35427746176719666,0.22434071729957805,0.7752259928083397
253,8.400457267283615,120.51670837402344,1.0007629859665819,119.85091400146484,1.0,55270.0,-0.004341071175551325,-0.001350280885481004,-0.001864145210283409,-0.0011838891837564365,-0.0016691566796359276,103.0,0.9542862772941589,0.9349978891502322,0.8824678849285327,0.7272081365209268,0.35511142015457153,0.22491217451942686,0.7750529205719203
254,8.43379241516966,120.50357818603516,1.0006539537310128,119.20621490478516,1.0,55372.0,-0.0063743520561920786,-0.0009145499692274387,-0.001509433563997513,-0.001449830369902969,-0.001360201391163698,103.0,0.9514129757881165,0.9342929037540032,0.8834248356570108,0.7266952767169311,0.3540968894958496,0.22487761985380003,0.7740215947041758
255,8.467127563055707,120.46143341064453,1.0003039862299763,119.1435317993164,1.0,55615.0,-0.002427843827965237,-0.0006821197569877071,-0.0013397926861161151,-0.0015002359719878764,-0.001223010286326006,103.0,0.947773814201355,0.9328418592106447,0.8819203452306033,0.7283645031169783,0.35544553399086,0.22492011105872492,0.7725585868513227
256,8.500462710941754,120.49243927001953,1.0005614568896817,118.99140167236328,1.0,55709.0,-0.0037113468393719096,-0.0006608876638893525,-0.0013113345550634999,-0.0013274643392442351,-0.0011935328395417562,103.0,0.9430825710296631,0.9316208631759082,0.8803963452942971,0.7294618305617389,0.355652391910553,0.2240670420322116,0.7710165786964336
257,8.5337978588278,120.43312072753906,1.0000688795325927,118.9510726928711,1.0,56246.0,-0.00038048548799857196,-0.0007156363708550334,-0.001272513657922658,-0.0009551532760913905,-0.0011243978934679353,103.0,0.9398579597473145,0.9286289988028779,0.8758133911744835,0.7322935110925946,0.35867658257484436,0.2246380585355692,0.7691870259178001
258,8.567133006713846,120.56637573242188,1.0011754205125176,118.47026824951172,1.0,56717.0,-0.00845195283596617,-0.0006264986299116858,-0.0010328520798053781,-0.0004376171142342209,-0.0008567590771789764,103.0,0.9379594326019287,0.9288279234327157,0.8757162755434879,0.73413412376872,0.35843613743782043,0.22390204123898158,0.7688144023909612
259,8.600468154599891,120.6019287109375,1.0014706501567663,118.35675048828125,1.0,57125.0,-0.009048769092718012,-0.00020620472131728857,-0.00045956345920502575,0.00015455162090914144,-0.0002911209800087226,103.0,0.9338948130607605,0.9269321663019694,0.8706170678336981,0.7378870273970833,0.35911083221435547,0.2232197062660656,0.7672575442405073
260,8.633803302485937,120.52897644042969,1.000864859200048,118.32294464111328,1.0,57380.0,-0.003384889352041287,0.0005874251487025905,0.0004448236406212024,0.0007416468318749954,0.0005569996564944754,103.0,0.9303139448165894,0.9263332171488323,0.8660508888114326,0.7416598808277431,0.3610258102416992,0.22381635581061693,0.7659142165700614
261,8.667138450371983,120.40581512451172,0.9998421355633295,119.2748031616211,1.0,56676.0,0.00035548950417180203,0.001613299258620257,0.0015259626999296711,0.0012482527856287654,0.0015533742384688525,103.0,0.9545795321464539,0.9298527301385654,0.8809549015456278,0.7312654830718415,0.3562021255493164,0.22440132122213047,0.7739567779341514
262,8.70047359825803,120.40889739990234,0.9998677305796978,119.12449645996094,1.0,56740.0,-0.0011365537793761038,0.002606708569037714,0.002533593079997062,0.0016126629482116637,0.0024871937130984305,103.0,0.9580238461494446,0.9301903419104688,0.8820232640112795,0.7294746856599214,0.3543446958065033,0.22467923169885062,0.7750188929826805
263,8.733808746144076,120.4530029296875,1.0002339800589688,119.26466369628906,1.0,57106.0,-0.0022006256744539487,0.0032975122107972384,0.0032222006419617023,0.0017944157230996717,0.0031458030350913725,103.0,0.9597858190536499,0.9291668125941231,0.8797849613000385,0.730722968650032,0.3555774390697479,0.22447856685860523,0.7753317354929048
264,8.767143894030122,120.44685363769531,1.0001829167342338,118.81904602050781,1.0,57247.0,-0.00205830445383115,0.0035180357153002774,0.003446216661818613,0.001777715357161801,0.0033881411212586562,103.0,0.9580268263816833,0.9317402367518531,0.8772686778346463,0.7333247934413629,0.3569892644882202,0.2243771216294114,0.775467682776586
265,8.800479041916168,120.45670318603516,1.0002647067494108,118.9063949584961,1.0,57148.0,-0.0008748297807734673,0.003250713878607592,0.003205826084368537,0.0015722737177565926,0.003189185771172111,103.0,0.9582964181900024,0.9303212710856023,0.8754987051165395,0.7343047310667387,0.3583816885948181,0.2256186878421093,0.7749455056599794
266,8.833814189802213,120.51049041748047,1.0007113524558389,118.78748321533203,1.0,57282.0,-0.00232811503105973,0.002607239288696238,0.0026279786155567427,0.0012092928386601464,0.0026380440316853384,103.0,0.9585651159286499,0.9280576795502951,0.872455570685381,0.7357807121204336,0.3604433536529541,0.2247084211067153,0.7746422704448256
267,8.86714933768826,120.52169036865234,1.0008043561291773,118.65835571289062,1.0,57277.0,-0.003526250033156819,0.0017644219941824052,0.0018999133659934149,0.0007362013525873915,0.0018967616451512404,103.0,0.9589678645133972,0.9264859076650894,0.8713096007123278,0.7374119706976684,0.3602760136127472,0.2247627875838451,0.7743592787535225
268,8.900484485574307,120.57176208496094,1.0012201484371612,118.11943054199219,1.0,58014.0,-0.005430600286441822,0.0008943901123378883,0.0011922957639714554,0.00020816780952808277,0.0011371026997799652,103.0,0.9527175426483154,0.9255352156376047,0.8623435722411832,0.7405884981170613,0.3658992052078247,0.22470160209357248,0.7722587462851812
269,8.933819633460352,120.53913879394531,1.0009492467292624,118.17461395263672,1.0,57866.0,-0.0017957839830350375,0.00011957294949210221,0.000607835060532858,-0.00031790263910297595,0.00048787448939647176,103.0,0.9542681574821472,0.9241177893754536,0.8601769605640618,0.7415770655252399,0.36705100536346436,0.2249106124488985,0.7723277720987277
270,8.967154781346398,120.59282684326172,1.0013950688336786,117.86942291259766,1.0,58266.0,-0.0046086129098844575,-0.0004972542140975543,0.00017238346427721866,-0.000792665828047628,6.375880601764975e-06,103.0,0.9535928964614868,0.9220414421217634,0.8570349775169053,0.7436155956862995,0.36853766441345215,0.2241720375215366,0.7717538219645796
271,9.000489929232444,120.58992767333984,1.0013709943133322,119.0254135131836,1.0,57275.0,-0.0055939329153464334,-0.0009386415311387157,-0.00013869931443047988,-0.0011762747724702591,-0.0003121421465313049,103.0,0.9492620825767517,0.9261923468645424,0.8706765604539503,0.7312480051069262,0.3634529411792755,0.2236833705713374,0.7715900373748937
272,9.033825077118491,120.69554901123047,1.0022480671019547,118.95878601074219,1.0,57360.0,-0.008568601164389456,-0.001212680990630911,-0.0003618055501734135,-0.0014440807603346944,-0.0005092236533032568,103.0,0.9504904747009277,0.9254765225476523,0.8695606694560669,0.7318380157697313,0.3643461763858795,0.22369797647298986,0.7717766777525935
273,9.067160225004537,120.54106903076172,1.0009652752914933,118.79417419433594,1.0,57002.0,-0.003483770188406954,-0.0013391669847108779,-0.0005171092982573052,-0.0015831358169715246,-0.0006273630489303305,103.0,0.9496570825576782,0.925470451329193,0.8686361882039226,0.7313293047483418,0.3642176389694214,0.22451021900619683,0.7713626937983623
274,9.100495372890583,120.5684814453125,1.0011929062167693,118.67015075683594,1.0,56969.0,-0.00466636713960944,-0.0013425883662499735,-0.000602752308082702,-0.001593772989837994,-0.000692367155163153,103.0,0.9502215385437012,0.9246315247473772,0.8670505011497481,0.7315817184831324,0.3645853102207184,0.22387024694687369,0.7714502933605799
275,9.133830520776629,120.6209945678711,1.0016289718050448,118.3421630859375,1.0,57249.0,-0.005432832576717284,-0.0012498097989130264,-0.0006078218286371397,-0.001483054874002512,-0.0007063705722241095,103.0,0.945547878742218,0.9228632814546979,0.8614124264179287,0.7357632150522433,0.3675219416618347,0.2247554910100374,0.7694290857843324
276,9.167165668662674,120.63958740234375,1.0017833655052668,117.79988098144531,1.0,57300.0,-0.007819579679642585,-0.0010908217010622402,-0.0005308678039580179,-0.0012649897229245956,-0.0006612985141045225,103.0,0.94353187084198,0.9235602094240837,0.8590750436300174,0.739021087250919,0.3672645390033722,0.22482749725930226,0.7689841141567545
277,9.200500816548722,120.56320190429688,1.0011490652481383,117.62063598632812,1.0,57451.0,-0.003629356927075833,-0.0008981150956381488,-0.00038954442942139094,-0.0009556570174743232,-0.0005501664665316692,103.0,0.9412710070610046,0.9205932011627299,0.8564689909662146,0.740109500805153,0.3695487380027771,0.22557165861513687,0.7674152706859564
278,9.233835964434768,120.56021118164062,1.001124230479781,116.92826843261719,1.0,57594.0,-0.004965886531991148,-0.0006986271110188967,-0.0002144687926151878,-0.0005756768471458924,-0.0003793575347537345,103.0,0.9391289949417114,0.917450891875311,0.8520505608223079,0.7425830657950722,0.3702183961868286,0.22576361221779548,0.7659486990077821
279,9.267171112320813,120.52648162841797,1.00084414244175,116.68022918701172,1.0,58116.0,-0.0033246059414892004,-0.000499390561670812,-3.221238710126282e-05,-0.00014754037616948338,-0.00016533270921725312,103.0,0.9362714290618896,0.9155367426067406,0.8478043912175649,0.7432283806941709,0.3720441162586212,0.2250044760467555,0.7647647191609008
280,9.300506260206859,120.5093002319336,1.0007014692316967,116.69043731689453,1.0,57862.0,-0.003962968566013136,-0.00027904008965564704,0.00014922536374667277,0.00030003446372432583,6.93907117969753e-05,103.0,0.9367972612380981,0.9167847637482285,0.8490546472641803,0.7431448350265216,0.37167462706565857,0.22568423215730596,0.7650985228770254
281,9.333841408092905,120.4869155883789,1.0005155885930215,117.37659454345703,1.0,57406.0,-0.003731492143300652,9.988808292962715e-07,0.000340302603569211,0.0007337166934977553,0.0003057693226119707,102.93336732703104,0.9453787803649902,0.9175463656528353,0.8580984566073233,0.7349190905366653,0.3687398135662079,0.22604721425645227,0.7677907826714154
282,9.367176555978952,120.44303894042969,1.000151239733778,117.12751770019531,1.0,57489.0,-0.0018287259868690064,0.0003644207278448178,0.0005533932674088874,0.0011154137958879447,0.000530666228750151,102.80147752332759,0.9436523914337158,0.9170623945450433,0.8561985771191011,0.7344396749961674,0.36883026361465454,0.22648065818386223,0.7670651844296031
283,9.400511703864998,120.53687286376953,1.0009304305909918,117.18830871582031,1.0,57306.0,-0.0071851121965698095,0.0007842583544763628,0.0007803715825548672,0.0014036523601915084,0.0007319785871336234,102.66958771962415,0.9447755217552185,0.9194208867017997,0.8592817506020312,0.7346452150503173,0.36636602878570557,0.22665213768348183,0.767957450665319
284,9.433846851751044,120.40702056884766,0.9998521454954735,117.19763946533203,1.0,57395.0,-0.0021213914294000435,0.0011705325176673443,0.0009803366103167206,0.0015617638550891428,0.0008935827822788685,102.5376979159207,0.9442493915557861,0.9209571100850829,0.8624096175625054,0.7339326359939643,0.3649628162384033,0.22591493823687372,0.7683311073406318
285,9.46718199963709,120.36578369140625,0.9995097171205454,117.06954956054688,1.0,57868.0,-8.757213017612786e-05,0.0013987596254793043,0.0010877177133012507,0.0015601174929810186,0.0009849628448229569,102.40580811221726,0.940252423286438,0.9194661413331491,0.861356881177853,0.7367871557530462,0.36620989441871643,0.22620032849085192,0.7667021966210482
286,9.500517147523135,120.3375015258789,0.9992748638391655,117.06121826171875,1.0,58063.0,0.0011937084001946707,0.0013688673153273872,0.0010375401127247713,0.0013872943796916575,0.0009655328173733762,102.27391830851381,0.9403660893440247,0.9203968103611594,0.8615124950484818,0.7379451462850461,0.36564901471138,0.22599832236089576,0.7670093649213181
287,9.533852295409183,120.4235610961914,0.9999894969694502,116.78007507324219,1.0,57944.0,-0.00322643840194925,0.001058068988940766,0.0007933202797349194,0.001052440913487933,0.0007919469082248529,102.14202850481036,0.9362435340881348,0.9202275760504395,0.8606585668921718,0.7375200468395998,0.3655729591846466,0.22654837970623426,0.7656202782978035
288,9.567187443295229,120.48749542236328,1.0005204034970907,117.21202087402344,1.0,57912.0,-0.00656760436943904,0.0005327226936804011,0.00036272320222600836,0.0005894139277926982,0.0004380268198349954,102.01013870110691,0.9341710209846497,0.9204194870378045,0.8655373670396463,0.7366439401648519,0.3630985915660858,0.226353414063295,0.7650854952421869
289,9.600522591181274,120.34317016601562,0.9993219358618429,117.22322845458984,1.0,57834.0,-0.001497815368902422,-8.485875558244998e-05,-0.0002036931833352352,5.4897757786691e-05,-8.463632650865405e-05,101.87824889740347,0.9274600744247437,0.9213957187813397,0.8650102016115088,0.7362230284514035,0.3633110225200653,0.22644007383361975,0.7632989372560339
290,9.63385773906732,120.36114501953125,0.999471197887991,116.9954833984375,1.0,58184.0,-0.002857984307901462,-0.0006671007810556073,-0.000824382276252568,-0.0004799633937632293,-0.0007139204426146761,101.74635909370002,0.920997142791748,0.9232721481277785,0.865890966588753,0.7384974678563723,0.36152008175849915,0.22488481602294794,0.7621402166648795
291,9.667192886953366,120.44878387451172,1.0001989452964646,117.40689849853516,1.0,58164.0,-0.004665315069847853,-0.0011174350805675428,-0.001400731571900423,-0.0009375950821844032,-0.001336932555288724,101.61446928999658,0.9500280022621155,0.9224548976457374,0.8644178529674713,0.7382717303005687,0.3627626597881317,0.2256168765231519,0.7704987497854385
292,9.700528034839413,120.43091583251953,1.0000505702263291,117.6095199584961,1.0,58277.0,-0.0038970353297427263,-0.0013800543875806246,-0.0018304190249322902,-0.0012488875839007836,-0.001814540554981152,101.48257948629312,0.9490050077438354,0.9246987090390149,0.8674434167853527,0.7361460241268237,0.3613983988761902,0.22451841091391397,0.7709724974001215
293,9.73386318272546,120.44495391845703,1.0001671415880067,117.96160888671875,1.0,57881.0,-0.0028311843751176458,-0.0014321625655528561,-0.002024057860849265,-0.0013651204366329289,-0.002021418354347096,101.35068968258967,0.9435235261917114,0.9232966488715353,0.8668302206250755,0.7377604996494805,0.36167091131210327,0.2251481741125486,0.7688515852528875
294,9.767198330611505,120.45714569091797,1.000268381281464,117.62197875976562,1.0,57782.0,-0.003187941723240828,-0.0012752572090085547,-0.001928577833654946,-0.0012679615809108012,-0.0018926618102914426,101.21879987888623,0.93748939037323,0.9220980005307305,0.8643003011318404,0.7372786199152759,0.3610168695449829,0.22442964323993264,0.7668853885966651
295,9.80053347849755,120.4522705078125,1.000227898074881,117.95952606201172,1.0,57388.0,-0.004337517435751892,-0.0009358915678612412,-0.0015529519412312977,-0.0009748205849965071,-0.0014562827693759197,101.08691007518279,0.9361665844917297,0.9260588740967913,0.86817801631003,0.7353193670318406,0.3581555187702179,0.22438336856941507,0.7674880201578337
296,9.833868626383596,120.43034362792969,1.0000458186762609,117.47492980957031,1.0,57308.0,-0.003943609749744392,-0.0004729374616196552,-0.000982618488532292,-0.0005373564310837648,-0.0008345131739676812,100.95502027147934,0.928337812423706,0.9227914659966032,0.8662490402736093,0.7384480581398345,0.3593274652957916,0.2244027523645079,0.764318659753361
297,9.867203774269642,120.38211822509766,0.9996453580364975,117.41659545898438,1.0,57490.0,-0.001666371862309446,2.2394752334745347e-05,-0.0003669523070307368,-3.3338303538341026e-05,-0.00020787489554836467,100.8231304677759,0.9231629967689514,0.9222241549254943,0.8646373282309967,0.7396114756207385,0.3594790995121002,0.22467515759680948,0.7625699062426972
298,9.90053892215569,120.30050659179688,0.9989676602887443,117.4190444946289,1.0,57417.0,0.0011245567075562901,0.0004451182540531732,0.0001254580209645839,0.0004472950727569991,0.0002494224741548367,100.69124066407244,0.9212108850479126,0.9228045120202495,0.8653882996325131,0.73846331927153,0.3589499294757843,0.22377559419693385,0.7623092746800493
299,9.933874070041735,120.39073181152344,0.9997168847035268,117.77780151367188,1.0,57231.0,-0.001333924912697071,0.0007096115790472504,0.00037000178605525215,0.0008182649362741082,0.00043562025189752905,100.559350860369,0.9191385507583618,0.9233865096422101,0.8657895196659153,0.7387218772991881,0.35733672976493835,0.22446529758754663,0.7616951331205517
300,9.967209217927781,120.3901596069336,0.9997121331534585,117.69352722167969,1.0,57184.0,-0.0025533257422553635,0.00077945812362037,0.00033844134319935634,0.0010143158149811616,0.0003602808952359518,100.42746105666555,0.9165249466896057,0.9245126842007089,0.8677777000559597,0.7370496874395824,0.3558226525783539,0.22408970806212541,0.7612677134446338
301,10.000544365813827,120.35523223876953,0.9994220985372845,118.71732330322266,1.0,57115.0,0.0009301674632775647,0.0006768763653462186,0.00011100120555291439,0.0010034842018473659,0.00013283260679215338,100.2955712529621,0.9515525102615356,0.9270419329423093,0.8727654731681694,0.7343713837529251,0.3573111891746521,0.2243037518965207,0.7723654859347339
302,10.033879513699873,120.3472671508789,0.9993559569603325,118.69410705566406,1.0,56904.0,0.00017525722487787831,0.00046708686229424287,-0.00016360555549234924,0.00079294664369907,-9.666200617095943e-05,100.16368144925866,0.9501678347587585,0.9265078026149304,0.8736819907212147,0.7334218361323418,0.35549622774124146,0.2237874901723227,0.7719198030468956
303,10.06721466158592,120.34930419921875,0.999372872478576,118.62055969238281,1.0,56738.0,-0.0008064692414289643,0.00022508752493123233,-0.0003446778765604585,0.0004290011381480785,-0.0002158283160425691,100.03179164555522,0.9499673247337341,0.9282726450233235,0.8760442736790158,0.7332480388735962,0.35225698351860046,0.22431150570568242,0.7721960575348147
304,10.100549809471966,120.36817932128906,0.9995296102768317,118.68345642089844,1.0,56701.0,-0.0008375977625297293,-8.174804080003425e-07,-0.00037459467195490807,-1.3422649564998118e-05,-0.00020994871847253315,99.89990184185177,0.94844651222229,0.927908384919725,0.8760162960088888,0.7333954186230001,0.35379117727279663,0.22397268247254667,0.771716513402109
305,10.133884957358012,120.35527801513672,0.9994224786612899,118.72417449951172,1.0,56747.0,0.0002543566643040118,-0.00021102590765309214,-0.00031007056216190266,-0.000444997238792529,-0.00016526082191060362,99.76801203814831,0.9469659924507141,0.9266980339636163,0.8750242303557897,0.7346936133300535,0.3543189764022827,0.22423905022074342,0.7709164961819697
306,10.167220105244057,120.4610824584961,1.0003010719459342,118.8082504272461,1.0,56730.0,-0.004508288466138821,-0.00044652718273037874,-0.00028626082901765264,-0.0007818236061671682,-0.00021471039232466276,99.63612223444487,0.947948694229126,0.9279569892473117,0.8772430812621188,0.7349873680119194,0.35259532928466797,0.22333354926475352,0.771707145727615
307,10.200555253130103,120.34693908691406,0.9993532327382934,118.66261291503906,1.0,57035.0,0.0015768058770798676,-0.0007473961336766598,-0.0004262409595804211,-0.0009596081050052511,-0.0004434850738335213,99.50423243074142,0.9465397000312805,0.927623389147015,0.876058560533006,0.7369624767417821,0.35334575176239014,0.22295586107091173,0.7712765850819555
308,10.23389040101615,120.3662338256836,0.9995134550065992,118.65449523925781,1.0,56955.0,0.00047158252096274333,-0.0010962275379882507,-0.0007431996390199993,-0.0009510249714084485,-0.0008165174605621177,99.37234262703798,0.946672797203064,0.9273695607643462,0.8781318584847687,0.736852319037454,0.35290640592575073,0.2232874053949156,0.7711867482730226
309,10.267225548902196,120.43909454345703,1.0001184857153065,118.81692504882812,1.0,57200.0,-0.0004279661187262529,-0.0013838851858643537,-0.0010953795948220192,-0.0007660733228537481,-0.0011607304369596206,99.24045282333454,0.945958137512207,0.9271503496503497,0.8765559440559441,0.7385314585996308,0.3540729284286499,0.2238576648461608,0.7708034956970173
310,10.300560696788242,120.41655731201172,0.9999313379966132,118.62199401855469,1.0,57111.0,-8.509243524645882e-05,-0.0014333770650569043,-0.0012322684844979254,-0.0004515913611837687,-0.0012346490405466396,99.10856301963109,0.9445817470550537,0.9247780637705522,0.8743324403354871,0.7395403043056005,0.35535040497779846,0.22333441243120752,0.7699021575729127
311,10.333895844674288,120.42840576171875,1.000029726760029,118.9535903930664,1.0,56589.0,-0.002711690406991485,-0.0010867915519512826,-0.0009214902721349335,-7.915887975951633e-05,-0.0008501549549784386,99.0,0.954123854637146,0.927335701284702,0.8837229850324267,0.732268792298037,0.35178548097610474,0.22423944409218546,0.7732231928938822
312,10.367230992560334,120.31306457519531,0.9990719409742451,118.45276641845703,1.0,56742.0,-0.00010511414696878774,-0.00031522328499548826,-9.487720470661924e-05,0.00027298639673347427,9.707049437164811e-06,99.0,0.9542011022567749,0.9288534066476332,0.8854992774311797,0.7302232803551895,0.34978723526000977,0.22558393925744805,0.7733568944874513
313,10.400566140446381,120.30641174316406,0.9990166962854501,117.93060302734375,1.0,56824.0,0.0006064352399361428,0.0007154334888060402,0.0010693911418026988,0.0005357314321821883,0.0011400143620407426,99.0,0.9486273527145386,0.9276831385799428,0.8784316485991834,0.736081245628125,0.35286810994148254,0.2249281069457758,0.7715233690701921
314,10.433901288332427,120.29077911376953,0.9988868839375818,118.12191772460938,1.0,57332.0,0.003159634039554049,0.001675680983487072,0.0021866567011341563,0.0006667581173416772,0.0021734282928716274,99.0,0.9476900100708008,0.9283355426870393,0.8786018279494872,0.7375503325485958,0.3548978269100189,0.22438346648141716,0.7715141953967167
315,10.467236436218473,120.30565643310547,0.9990104242393598,117.77041625976562,1.0,57155.0,0.0022208473843411403,0.00220235215699548,0.0028235879104831323,0.0006569246125913333,0.0027247591490458033,99.0,0.9458805322647095,0.9299857113696673,0.8756714198232876,0.738761212935915,0.35732969641685486,0.22549957345604013,0.7711606728306217
316,10.500571584104518,120.2364730834961,0.9984359301590919,117.67674255371094,1.0,57449.0,0.005967606172971096,0.0020703247586864033,0.002703338132792416,0.0005330974178753405,0.0025671664960624997,99.0,0.9396811723709106,0.928852837589282,0.8716774878587965,0.7409045770515482,0.3611423075199127,0.22450637743587099,0.7692162856214195
317,10.533906731990564,120.27596282958984,0.9987638504678111,117.28002166748047,1.0,57640.0,0.003522753397791567,0.0013174522412348671,0.0018544363508881713,0.000346831082522098,0.001746594567579271,99.0,0.9320718050003052,0.9287011334721259,0.8702984038861902,0.7420949634359872,0.36070963740348816,0.22583427747450818,0.7666299693732214
318,10.567241879876612,120.37313842773438,0.9995707903774244,116.85100555419922,1.0,57850.0,-0.0005157859295720768,0.0002502668942683988,0.000621367347474263,0.00016192387292365246,0.0005831664751226719,99.0,0.9251115322113037,0.926626332469029,0.8664822817631807,0.7429811718168041,0.36284568905830383,0.22515476098738793,0.7641590905831708
319,10.600577027762657,120.3655776977539,0.9995080065625208,116.19670104980469,1.0,58140.0,-0.0004006758974599012,-0.0006826683582062798,-0.00047754893303703555,3.566218603167345e-05,-0.0004550131054426685,99.0,0.9164738655090332,0.9253927301914918,0.8628998968008256,0.7475602072698752,0.364434152841568,0.22551528165301582,0.7611872858699796
320,10.633912175648703,120.44844818115234,1.0001961577204244,115.95045471191406,1.0,58303.0,-0.0031628995427392947,-0.0010912049723878366,-0.0009807249569278402,2.159333356222082e-06,-0.0009500029116966365,99.0,0.9102252125740051,0.9238689832998874,0.8590295525101624,0.7496078582632622,0.366024911403656,0.22517935663040964,0.7589989382710914
321,10.667247323534749,120.34754943847656,0.9993583010583663,117.111572265625,1.0,57215.0,0.0008693808162358874,-0.0008179042198174053,-0.0006912639590009866,6.517437212854844e-05,-0.0007122704078248873,99.0,0.9491101503372192,0.9264237233825628,0.8721489119986018,0.7382294878907913,0.36145058274269104,0.22623640375211282,0.7710916951963839
322,10.700582471420795,120.33837890625,0.9992821495492703,117.11698913574219,1.0,57085.0,0.0008774502428280928,-1.0803808988163032e-06,0.00023785133973436957,0.00019362881617498745,0.000135571879125538,99.0,0.9492170214653015,0.9282064757233366,0.872505912236139,0.7374656038859535,0.3615725040435791,0.22579353288462284,0.7716580187934999
323,10.733917619306842,120.34359741210938,0.999325483685894,116.88175964355469,1.0,56872.0,0.0017206997675142666,0.0009978320715211763,0.0013792850554581572,0.00033266819226030955,0.0012160246129207938,99.0,0.9491569399833679,0.927996201997468,0.8713074975383317,0.7372760507143042,0.36262115836143494,0.22585496123830018,0.7715751402467174
324,10.767252767192888,120.3437728881836,0.999326940827915,116.72130584716797,1.0,56910.0,0.00218238801598003,0.0017585349419142109,0.0022262630047525742,0.00041662861487886917,0.0020574591694733873,99.0,0.9460167288780212,0.9270251273941311,0.8687928307854507,0.7399173102426087,0.3637066185474396,0.22461450451153236,0.7706383996096328
325,10.800587915078934,120.2873306274414,0.9988582479291697,116.45853424072266,1.0,57258.0,0.003840319854532148,0.001975069019236977,0.0024108529861966476,0.0003891459997027314,0.0022927415165248507,99.0,0.9421598315238953,0.9301000151361674,0.8669006950993747,0.7408682150481982,0.3646949231624603,0.22598175583877855,0.7699766020734546
326,10.83392306296498,120.4009017944336,0.9998013355867422,116.22785186767578,1.0,57172.0,-0.0009354990453623868,0.0015617943569455597,0.0018454629747805095,0.00021841386152975027,0.0018001477229687953,99.0,0.9359949231147766,0.9277326896616059,0.8621877842300427,0.7430338947806197,0.3674848973751068,0.22483884383447703,0.7677638805829392
327,10.867258210851025,120.43087005615234,1.0000501901023238,116.2177505493164,1.0,57049.0,-0.0003742011212452545,0.0006577788022657057,0.000731948195130248,-8.911739064307422e-05,0.0007372745428632813,99.0,0.931692361831665,0.9272321454655938,0.8591386352083297,0.745329361657652,0.36942774057388306,0.22530114185675837,0.7662555165445464
328,10.900593358737071,120.5074691772461,1.0006862642714778,115.56867980957031,1.0,57552.0,-0.004276175264558535,-0.0004533643795605488,-0.0005505053858345423,-0.0004903814152579191,-0.0005475425296533951,99.0,0.9245819449424744,0.9220704753961635,0.8542535446205171,0.7492481741371904,0.37294620275497437,0.22457136161847605,0.7629779300080879
329,10.933928506623118,120.34524536132812,0.9993391681500909,115.88104248046875,1.0,57291.0,0.00223160091885255,-0.0014584413845564552,-0.0016138259511416814,-0.0009081344885015936,-0.0016625332900977946,99.0,0.9242041707038879,0.9241009349926981,0.8560855980869596,0.7478949910577914,0.3718722462654114,0.22500424265368196,0.7632856364286045
330,10.967263654509164,120.50143432617188,1.0006361512567565,115.90190124511719,1.0,57169.0,-0.002984608481217732,-0.002114652111053473,-0.002205006432639191,-0.0012527466880964335,-0.0023247876648634785,99.0,0.9232476949691772,0.9231518247068632,0.8561283212930084,0.7490108220003668,0.37299424409866333,0.22427482116185835,0.7629073004350974
331,11.00059880239521,120.51228332519531,1.000726240646053,117.442138671875,1.0,55795.0,-0.007679024181268812,-0.0023064864796413197,-0.0022686934266037905,-0.0014374266454331604,-0.0024370251495468643,99.0,0.9541993737220764,0.9297965767541895,0.8780715117842101,0.7286035153699496,0.36480021476745605,0.22468594113191778,0.7737717680787868
332,11.033933950281256,120.47685241699219,1.000432024665819,117.51130676269531,1.0,55919.0,-0.0049148212742785025,-0.0020526388482457057,-0.0019173838481410604,-0.0014018495044219766,-0.0020838199506689413,99.0,0.9507815837860107,0.9295886311748541,0.8767860655591123,0.7309768755147126,0.36703985929489136,0.22451273872861083,0.7727290851837946
333,11.067269098167301,120.35127258300781,0.9993892178108112,117.81838989257812,1.0,55636.0,-0.0005532130926704792,-0.0014692040572755608,-0.001341384420976311,-0.001126217705513155,-0.0014545448440113728,99.0,0.952721118927002,0.9312795072734681,0.8804371270400461,0.7283819698100362,0.36582842469215393,0.22427765340455336,0.7737806818155569
334,11.100604246053349,120.40336608886719,0.9998217989290368,118.11388397216797,1.0,55541.0,-0.0024535616443558395,-0.000708854513970071,-0.000712684095964871,-0.000638050143995793,-0.000748325436007379,99.0,0.9538699388504028,0.9341627506406679,0.8820691021047514,0.7271287180561374,0.3650422990322113,0.2238295978215333,0.7749357497509811
335,11.133939393939395,120.39216613769531,0.9997287952556982,118.28005981445312,1.0,55900.0,-0.0013951095688059523,9.205617260004599e-05,-0.00013030931750832614,-7.010303748311182e-06,-0.00010273233874025678,99.0,0.9486380815505981,0.934144305307096,0.8815026833631485,0.7279309312046671,0.36602872610092163,0.22362715351659657,0.7734020700886342
336,11.16727454182544,120.49872589111328,1.0006136605864329,118.41793060302734,1.0,55888.0,-0.0056002677480901375,0.0008321456345260894,0.00037522496962130015,0.0006654706145790987,0.0004213810419159933,99.0,0.9465356469154358,0.9359492795114037,0.8834096764958489,0.7285526195721604,0.365248441696167,0.22311011458591337,0.773325991035299
337,11.200609689711486,120.36396026611328,0.9994945755143275,118.4019775390625,1.0,55855.0,-0.001750537514531636,0.0014307477766722853,0.0007970255952588854,0.0012698113958071176,0.0008156573332781477,99.0,0.9456138014793396,0.9381672783695879,0.8885686151642647,0.7272218316277375,0.3628525137901306,0.22395385777152826,0.7734351884818932
338,11.233944837597532,120.38573455810547,0.9996753878329296,118.75745391845703,1.0,56044.0,-0.0006708831883996957,0.0018089136144844424,0.0011063994590414519,0.001705862168782708,0.0010771731885761168,99.0,0.9422724843025208,0.9372100492470202,0.8877667546927415,0.7264290343486715,0.3648148775100708,0.22440699935191186,0.772102857732129
339,11.26727998548358,120.43367767333984,1.0000735043746591,118.74430847167969,1.0,55916.0,-0.002099085789497135,0.0018942921735925912,0.0012410025544267002,0.0019043600398366105,0.0011828339758033523,99.0,0.9374468922615051,0.9340975749338294,0.8848987767365334,0.7267008902462798,0.3652258813381195,0.22435505880823964,0.769887449650261
340,11.300615133369625,120.39553833007812,0.9997567977241013,118.43146514892578,1.0,55805.0,-0.0006603551130432983,0.0016531725750944745,0.0011337373865199563,0.0018382318876176906,0.0010923113354071462,99.0,0.932910680770874,0.93356628736971,0.8840426485081981,0.7259659164823729,0.36405304074287415,0.22444386626772472,0.7683760028201447
341,11.333950281255671,120.41851043701172,0.9999475566208466,118.44729614257812,1.0,56252.0,-0.0017506449569200666,0.0011256023943312114,0.0007607520550716529,0.001525196069147756,0.0007781290468989733,99.0,0.9499094486236572,0.9322750005925715,0.8806264666145204,0.7262352014666202,0.3660772740840912,0.22373704119705126,0.7732941764958297
342,11.367285429141717,120.44803619384766,1.0001927366043752,118.60287475585938,1.0,55828.0,-0.002599357673205127,0.0004323194682574245,0.00017473134621216808,0.0010235127864614828,0.0002623629989063649,99.0,0.9518396854400635,0.9321308304076807,0.882800745145805,0.7266148660080954,0.36344677209854126,0.2225866489659391,0.7740672834407515
343,11.400620577027762,120.53349304199219,1.0009023647685877,118.3305435180664,1.0,56055.0,-0.006863486409238395,-0.0002603222631483668,-0.000499770176694126,0.00041685943435994634,-0.00036890158223618503,99.0,0.9500822424888611,0.92989028632593,0.8801890999910802,0.726712905944124,0.3640362620353699,0.22446360277435665,0.7726045237732696
344,11.43395572491381,120.54109191894531,1.0009654653534958,119.06836700439453,1.0,56317.0,-0.0050580107758188,-0.0008020281000703177,-0.0011077503376366402,-0.00020066808478585703,-0.000978808360030935,99.0,0.9473652839660645,0.9307491521210292,0.8813679705950246,0.7275064267352185,0.3645976781845093,0.22459340403818578,0.7719781924124395
345,11.467290872799856,120.52050018310547,1.000794472905035,118.90827178955078,1.0,56147.0,-0.004465789307365575,-0.0011119562913501073,-0.0015191974693898901,-0.0007441579011061886,-0.0014244056323547537,99.0,0.9441539645195007,0.9303969936060698,0.8822198870821237,0.728519527702089,0.3637041449546814,0.2239911768522123,0.7710472023869253
346,11.500626020685901,120.5609359741211,1.0011302491098675,119.26244354248047,1.0,56198.0,-0.0037797979404807225,-0.0011947053403551997,-0.001670418609534013,-0.0011495378607418122,-0.0016053604571628429,99.0,0.9405410289764404,0.9296772127121962,0.8799067582476244,0.7295125592263257,0.3646118640899658,0.22496267930161615,0.7695890760106578
347,11.533961168571947,120.60952758789062,1.0015337507416744,118.86763763427734,1.0,56648.0,-0.0056870518240700885,-0.0011158777072723075,-0.0015748589355942596,-0.001383371990672542,-0.0015023589262833916,99.0,0.933671236038208,0.9276997128465848,0.8767652873887869,0.7313193906532404,0.3664165735244751,0.22437387038471468,0.7671515249461656
348,11.567296316457993,120.53508758544922,1.0009156057547783,118.8552474975586,1.0,56856.0,-0.003171278002702893,-0.0009589411579261008,-0.001305387092433631,-0.0014421669988961018,-0.0011813004612374887,99.0,0.9288333058357239,0.9264867970545471,0.8752462361052483,0.7332662694420801,0.36867454648017883,0.22429002553586627,0.7654136859071806
349,11.60063146434404,120.5706787109375,1.0012111521690317,118.80717468261719,1.0,56689.0,-0.005487838478192675,-0.0007908133431085815,-0.000962411245215547,-0.001349958818905111,-0.0007698147226874542,99.0,0.9243780970573425,0.9274815219883928,0.8768720563072201,0.7345418264745517,0.3663175702095032,0.22487560899761583,0.7642086878147779
350,11.633966612230086,120.51394653320312,1.0007400518182519,118.5947036743164,1.0,56631.0,-0.003994691231341163,-0.0006505044967561163,-0.0006429100227025737,-0.0011463831404080796,-0.0004069702726119157,99.0,0.9199762344360352,0.9285138292925548,0.8791651215765217,0.7330019803518036,0.363883912563324,0.22570833171539886,0.7629796613108696
