frame_index,time_s,G_skin_raw,G_normalized,frame_luminance,face_detected,BVP_detrended,BVP_butterworth,BVP_cheby1,BVP_cheby2,BVP_elliptic,gt_bpm
1,0,140.345022071224,1.00164271169166,117.560636935909,1,-0.00814681076005039,0.000465790550682916,6.9756771446439e-05,0.000496511750653165,8.21557977454298e-05,NaN
2,0.033334721517092,139.945341560164,0.998790191060727,117.741074240277,1,-0.00541042467195982,0.00138360669231569,0.000888775950587334,0.000679155423539357,0.000899111182424872,NaN
3,0.066669443034184,140.47657627631,1.00258161432442,118.066394517742,1,-0.00783407250187326,0.00215108241559261,0.00160167413743632,0.000781677869377049,0.00161255353872977,NaN
4,0.100004164551276,140.022879676071,0.999343580753711,117.778129530459,1,-0.00317952995114199,0.00266333533848743,0.00212356619712056,0.000790293440323944,0.00213303810618745,NaN
5,0.133338886068368,139.953806957356,0.998850608617924,117.732270359548,1,-0.00599743036776831,0.00284259093250178,0.00233231901908305,0.000700217573817319,0.00233691570198055,NaN
6,0.16667360758546,140.127305199263,1.00008886592789,117.6279747032,1,-0.00261938200139497,0.00264978970959364,0.00208871414855826,0.000521805972044164,0.0020855210288137,NaN
7,0.200008329102552,140.217796816854,1.00073470478909,117.586280156411,1,-0.00350127951524046,0.00212352145323188,0.00136089538096713,0.000274584699895102,0.00135274062162632,NaN
8,0.233343050619644,140.267488751811,1.00108935623127,117.649076073914,1,-0.00370480078905952,0.0014273319700353,0.000387105783657633,-1.12369727786147e-05,0.0003843954660761,NaN
9,0.266677772136736,141.214751322285,1.00784997114849,117.835084234843,1,-0.00798559236206528,0.000812149638349697,-0.00036760397654785,-0.000301098811803807,-0.000366092392900416,NaN
10,0.300012493653828,140.459809381873,1.00246194896428,117.897257160604,1,-0.00506170398683023,0.00043016614049239,-0.000610883975072205,-0.000557702377163189,-0.000618890301865131,NaN
11,0.33334721517092,140.443030138609,1.00234219547053,117.737526525762,1,-0.00208743881488857,0.000199812888278359,-0.00052413835003632,-0.000748714404240815,-0.00054371445048545,NaN
12,0.366681936688012,140.2644980057,1.00106801127011,117.989628594418,1,-0.00400184004771895,-7.38346046004343e-05,-0.000507433252057813,-0.000849257404135848,-0.00052538271263388,NaN
13,0.400016658205104,140.50615521042,1.00279271923811,117.900515771238,1,-0.00515415171135777,-0.000503214330977376,-0.000771123217797909,-0.000844817941420673,-0.000784740623262243,NaN
14,0.433351379722196,140.297358779182,1.00130253867816,117.786636674872,1,-0.00412674814671074,-0.00109441729718642,-0.00132069981296162,-0.00073439952610055,-0.0013391274114992,NaN
15,0.466686101239288,140.16626640399,1.0003669321263,117.912440351152,1,-0.00363191289508566,-0.00180197226829635,-0.00210879261814403,-0.000530636100291545,-0.00213550452774539,NaN
16,0.50002082275638,140.11231381404,0.999981872380671,117.694467193116,1,-0.00379623865009812,-0.00250714413928926,-0.00298307258010219,-0.000257904951425591,-0.00301088406884077,NaN
17,0.533355544273472,140.488885840733,1.00266946771108,117.900290800265,1,-0.00683174052859689,-0.00300096074175164,-0.00360817960684216,4.99427159687876e-05,-0.00363310298335389,NaN
18,0.566690265790564,140.394432164306,1.0019953516278,117.829376441581,1,-0.00471390703659991,-0.00309251318993933,-0.00365505309843695,0.000355077143472948,-0.00368227028182231,NaN
19,0.600024987307656,140.365143845429,1.00178632083562,117.786790183072,1,-0.00351554682698652,-0.00274905540960955,-0.00307542023290419,0.000618386782205975,-0.00310776729215279,NaN
20,0.633359708824748,140.144622483395,1.00021245942042,117.831552305962,1,-0.0023300611154532,-0.00210402770057144,-0.00210759740271839,0.000806411618045369,-0.00214162290974338,NaN
21,0.66669443034184,139.844817615127,0.998072751457874,117.446169568076,1,-0.00153877737446773,-0.00136216885361488,-0.00107731932163805,0.000894756798654382,-0.00111158362056032,NaN
22,0.700029151858932,140.066867227915,0.999657520001856,117.696789678968,1,-0.000634326904256688,-0.000720846082685934,-0.000255003644465157,0.000871610701999513,-0.000292179242917678,NaN
23,0.733363873376024,139.866380196343,0.998226643644442,117.258308987799,1,0.000822696323449001,-0.000326328995887096,0.000198832448274962,0.000739362160198032,0.000157067583045355,NaN
24,0.766698594893116,139.668366521489,0.996813419639012,117.248466675173,1,0.002217922872355,-0.000219844329442213,0.000312134453695805,0.000514356567845708,0.000273333293730827,NaN
25,0.800033316410208,140.456745082223,1.00244007905136,117.181230973355,1,-0.00261178762722558,-0.000308194377116147,0.00033019231264841,0.000224147414702579,0.000297317467781176,NaN
26,0.8333680379273,139.727103706578,0.997232627050017,117.084327570467,1,0.0015562661506564,-0.000455088635938284,0.000490285537515101,-9.33730931821655e-05,0.00045473481542371,NaN
27,0.866702759444392,139.855238231447,0.998147123418016,116.991347312605,1,0.000924064652104484,-0.000598490399475504,0.000764741582003746,-0.000399385920247721,0.00072280570955116,NaN
28,0.900037480961484,139.988628055113,0.999099126864364,117.162384457378,1,0.00174887046516659,-0.000719465200539074,0.00096554673792927,-0.000654705517381523,0.000922579056566441,NaN
29,0.933372202478576,139.835346609815,0.998005156873447,117.168519465757,1,0.000369734418575129,-0.000743343690195881,0.00102858585398022,-0.000827965623997435,0.000987244047757256,NaN
30,0.966706923995668,140.077387037706,0.999732599906008,117.045705161253,1,0.00242729809705133,-0.000518146708371057,0.00113022810029224,-0.000897633657694951,0.00109425136976398,NaN
31,1.00004164551276,140.113195528822,0.999988165180884,117.073027216707,1,-0.000485426251897403,0.000134512792381903,0.00161345146854727,-0.000857045829747861,0.00158487146395681,NaN
32,1.03337636702985,140.239150736376,1.00088710775672,116.824912540414,1,0.000911461709995343,0.00130196226611059,0.00273437491272212,-0.000712170512367246,0.00270516580191039,NaN
33,1.06671108854694,139.841968709827,0.998052418814874,116.727876540345,1,0.00485370943405439,0.00285143020791597,0.0043701287535607,-0.000483093758872874,0.00433315950906269,NaN
34,1.10004581006404,138.733392193973,0.990140505937099,116.55851697439,1,0.00498149570237161,0.00445280370721,0.00605584213303994,-0.000200537809148682,0.00601628709647047,NaN
35,1.13338053158113,138.439946210981,0.98804618135186,115.966821627257,1,0.00742837649250028,0.00575519179207717,0.00734304689473883,9.97663253270518e-05,0.00731128285037439,NaN
36,1.16671525309822,139.48321541048,0.995491995778253,116.151069911424,1,0.00390485766061366,0.00652762355293704,0.00804181270973942,0.000379274009359249,0.00802076757014908,NaN
37,1.20004997461531,138.691243211555,0.989839688562733,115.969222663648,1,0.0056264597397564,0.00665627744688358,0.00811604115107063,0.000605042541550857,0.00809761996683631,NaN
38,1.2333846961324,138.93583281121,0.991585325039429,115.730826245946,1,0.00624041246280982,0.00609804844793025,0.00749796992016809,0.000750656974858705,0.00747907408905032,NaN
39,1.2667194176495,139.252140003345,0.993842810121423,115.759462832185,1,0.00194904587081046,0.00492415031777982,0.00616263015368159,0.000801154139956964,0.00614773900155244,NaN
40,1.30005413916659,140.030542992778,0.999398273860836,115.627553326103,1,-0.000322348698284736,0.00335837889041538,0.00427185874797785,0.000755060008303868,0.00425640954797895,NaN
41,1.33338886068368,140.57078735767,1.0032539990062,115.59083372876,1,-0.000926350225334716,0.00169817280898023,0.00212629714743203,0.000622663044370448,0.00210599921108288,NaN
42,1.36672358220077,140.876825546894,1.00543819419326,115.581608092677,1,-0.00289473695884312,0.000244327187887356,0.000147142193751915,0.000424635030317042,0.000133966806943586,NaN
43,1.40005830371786,141.201093942677,1.00775249840209,115.886133571154,1,-0.0101875207745201,-0.000734068706919927,-0.00112138524148799,0.000188526681042891,-0.00111928639712121,NaN
44,1.43339302523496,141.441025391159,1.00946488964426,115.139074275232,1,-0.00809338628441358,-0.00115198174440502,-0.00136341305451591,-5.32394832201077e-05,-0.00135562590512392,NaN
45,1.46672774675205,141.0720083909,1.00683121455309,114.869469229154,1,-0.00709782204436338,-0.00125302317307962,-0.00091507676787059,-0.000271499628505407,-0.000907464605638736,NaN
46,1.50006246826914,141.622694102632,1.01076145961236,114.966722889873,1,-0.0103517887413244,-0.00148977632006459,-0.000640324613980742,-0.000441345888311906,-0.000633823970598672,NaN
47,1.53339718978623,141.2924827971,1.00840474084441,114.641775547773,1,-0.0082443486868955,-0.00224287165512488,-0.00140143174787059,-0.000544825971855576,-0.00140145934583045,NaN
48,1.56673191130332,141.225735868984,1.00792836788092,114.802035511044,1,-0.00902451825693562,-0.00356214559352347,-0.00348626044725587,-0.000575426236525369,-0.00348336888187017,NaN
49,1.60006663282042,141.357856679496,1.00887131437777,116.239612184443,1,-0.0186747381214534,-0.00502079456516844,-0.00621442339888002,-0.000536878462933187,-0.00619695667264492,NaN
50,1.63340135433751,141.36297579395,1.00890784950817,116.180964177478,1,-0.0183932642796706,-0.0059042375811211,-0.00824447170528543,-0.000439936486404939,-0.00822024938443406,NaN
51,1.6667360758546,141.934937102704,1.01298993854723,114.967771600552,1,-0.0182343926833595,-0.00567367330363371,-0.00848988316346147,-0.000304705621468973,-0.00846544337498348,NaN
52,1.70007079737169,141.312393652087,1.00854684465747,115.598612716447,1,-0.019733147558547,-0.00429195488146142,-0.00677735091036536,-0.00015390009077369,-0.00675342212092166,NaN
53,1.73340551888878,142.286530734818,1.01549926302406,115.237682328426,1,-0.0129813880010586,-0.00225096200814175,-0.00390934555738872,-9.08666238275958e-06,-0.00388838052608109,NaN
54,1.76674024040588,142.290374483037,1.01552669586302,115.353248933068,1,-0.0136240623016665,-0.000351238463390586,-0.00124974657572675,0.000109224092735562,-0.00123074305463556,NaN
55,1.80007496192297,140.978934012032,1.00616694251934,115.310812404198,1,-0.0100987170623368,0.000684365031922998,-5.17805339233786e-07,0.000189339848519662,1.96161549455174e-05,NaN
56,1.83340968344006,141.97106789805,1.01324780410806,115.780565064624,1,-0.0117042872881707,0.000566955262356439,-0.000555753387601376,0.000225246325219508,-0.000528013190218201,NaN
57,1.86674440495715,142.636122088861,1.01799429723817,116.154793252548,1,-0.0185329996036399,-0.000442522363310543,-0.00234304618380576,0.000219646643332634,-0.00230966078569144,NaN
58,1.90007912647424,142.089019348358,1.01408962385193,116.124729437229,1,-0.0139798640321168,-0.0017354817717056,-0.00427676350257767,0.00018383063487487,-0.00424501950942464,NaN
59,1.93341384799134,142.544110549392,1.01733761069139,116.96374878245,1,-0.0208613023538484,-0.00268289346591979,-0.00538919747191265,0.000130112908532957,-0.00535759083141548,NaN
60,1.96674856950843,142.473755538039,1.01683548683041,116.856513493056,1,-0.0182766133471811,-0.00287994477956277,-0.00521707564983366,7.67683680264018e-05,-0.00518725628742788,NaN
61,2.00008329102552,142.164932275837,1.01463141457176,116.879416726922,1,-0.0165587100357228,-0.00228386663505843,-0.00394484049730645,3.76446292648836e-05,-0.00392112737069944,NaN
62,2.03341801254261,141.986708717688,1.01335943267004,117.279727024904,1,-0.0154776978082251,-0.00117287649991677,-0.00221156974507053,2.3545171640423e-05,-0.00219116963654393,NaN
63,2.0667527340597,141.949427549665,1.01309335689705,117.334080884459,1,-0.0141803938954539,5.14652841043934e-05,-0.000666144795853047,3.89513038263903e-05,-0.0006479591797988,NaN
64,2.1000874555768,141.375250964069,1.0089954574226,117.104742751802,1,-0.0107831217612323,0.00106130207556694,0.000382840713731968,8.14330309527951e-05,0.000406503469287533,NaN
65,2.13342217709389,142.095021632998,1.01413246216978,117.460877026253,1,-0.0157356013267276,0.00171872498539828,0.00106018247022343,0.000140565779468395,0.001095299496991,NaN
66,2.16675689861098,141.841682747367,1.01232438202105,117.370469234931,1,-0.0132207565249029,0.00202452312296196,0.0016264406179225,0.000203293889365152,0.00166137916949371,NaN
67,2.20009162012807,141.316447579505,1.00857577754581,117.32246662102,1,-0.0110018102633583,0.00195995218024954,0.00201224558797867,0.000251981577025929,0.00203333320468085,NaN
68,2.23342634164516,141.582107165698,1.01047179055984,116.749185888347,1,-0.00987040812507992,0.00149000527503805,0.00183863041394104,0.000270500194791908,0.00184885216056689,NaN
69,2.26676106316226,142.123808751048,1.01433791589061,116.743577327165,1,-0.0120645605990495,0.000737456754061447,0.000945239109517522,0.000246039972454619,0.000952719192163076,NaN
70,2.30009578467935,142.62975722602,1.01794887119895,116.754333362261,1,-0.0121668883540017,5.56093046116964e-05,-0.000242463286961021,0.00017263358996082,-0.000232285729569524,NaN
71,2.33343050619644,143.348309635973,1.02307718122931,117.04423687121,1,-0.0149658376482653,-0.000119601536642415,-0.000874007606566251,5.11893888118375e-05,-0.000859938135239248,NaN
72,2.36676522771353,143.528312595275,1.02436186272073,116.661487596162,1,-0.0131837167961849,0.000458754554385371,-0.000220067107020751,-0.000107691162605358,-0.000204310391717964,NaN
73,2.40009994923062,143.436274574587,1.02370498717744,116.36940493176,1,-0.0110727044359256,0.00163336324213733,0.00177601557162628,-0.000286674010854926,0.00179241489410481,NaN
74,2.43343467074771,143.592264467622,1.02481828736543,116.694994619812,1,-0.0108929342120167,0.00283112867697843,0.00429614189416829,-0.000462482710781844,0.00430723005924915,NaN
75,2.46676939226481,143.320735520188,1.02288038470814,116.056602733686,1,-0.00303339301135599,0.00328592071021092,0.00593635777228,-0.000607850493016093,0.00593730224291828,NaN
76,2.5001041137819,143.37555135807,1.02327160545604,116.981193908865,1,-0.00583133334323707,0.00246907216603047,0.00550719209040233,-0.000699135989043365,0.0055072135179399,NaN
77,2.53343883529899,144.049417100385,1.02808098664739,117.626921116727,1,-0.0126801183441867,0.000477806392452701,0.00285937405961139,-0.000715588553294258,0.0028559641998652,NaN
78,2.56677355681608,143.525772155317,1.02434373159551,117.249387265478,1,-0.00660727559264643,-0.00195850326031736,-0.000978790193657446,-0.000643823753682474,-0.000989447222952733,NaN
79,2.60010827833317,144.190793191048,1.02908998809775,118.38032374666,1,-0.0175621428435591,-0.00375903639406649,-0.00419448884461101,-0.000485762982878147,-0.00419446621898894,NaN
80,2.63344299985027,143.573371369944,1.02468344728838,118.672889228224,1,-0.0192627486852385,-0.00392187802986377,-0.00491844756720488,-0.000250223871926856,-0.00490461432531647,NaN
81,2.66677772136736,142.705827463093,1.01849178463768,118.694269397952,1,-0.0150461153126336,-0.00212430821906822,-0.00241616474191932,3.96392384059644e-05,-0.00241067771345843,NaN
82,2.70011244288445,140.79315121781,1.00484101033418,118.689684615491,1,-0.00599145787879377,0.000946233908866531,0.00218053357672064,0.000352445160129999,0.0021704178145262,NaN
83,2.73344716440154,140.012141303873,0.999266940969212,118.917501192179,1,-0.00252752042707519,0.00396475001994056,0.00656780468428572,0.000650665282172004,0.00655472628009707,NaN
84,2.76678188591863,139.843215810962,0.998061319378247,119.076563533857,1,-0.00265479531637861,0.00571522944884171,0.00871671263817392,0.000896952983023875,0.0087069996753407,NaN
85,2.80011660743573,139.034813337478,0.992291749259344,119.375052628016,1,-0.00238907339672759,0.00561157844592479,0.00782112174850319,0.00105817146034505,0.00780589967425581,NaN
86,2.83345132895282,138.675817408869,0.989729594577181,119.280776622814,1,-0.000204820511249398,0.0038545157364864,0.0045103264323517,0.00111001802910349,0.00449943874440378,NaN
87,2.86678605046991,140.23075423768,1.00082718192823,120.598140977232,1,-0.0133900200511332,0.00134102392923125,0.000612124088630798,0.00103843242022945,0.000625801207876577,NaN
88,2.900120771987,140.714474580422,1.00427949501104,120.685172690253,1,-0.0186505846201099,-0.000823763042178175,-0.00186629956880463,0.000846927116267889,-0.00184971327172357,NaN
89,2.93345549350409,139.923537695073,0.998634576830643,119.464848161168,1,-0.00848468749234127,-0.00208428938606908,-0.0022642314578019,0.000552287491362382,-0.00227846214411495,NaN
90,2.96679021502119,140.201843589507,1.00062084657265,119.297699540226,1,-0.00894113443147687,-0.00266863745190213,-0.00158955489569825,0.000181530428177176,-0.00162183607100261,NaN
91,3.00012493653828,140.311122743149,1.00140077211735,119.070153552649,1,-0.0101305842585256,-0.00306621606673987,-0.00120007882244649,-0.000225587354817311,-0.00121778887558346,NaN
92,3.03345965805537,140.842728671356,1.00519484472229,119.655056264348,1,-0.0133544674627472,-0.00349325664913631,-0.00157844279549981,-0.000625776828974911,-0.0015708503559581,NaN
93,3.06679437957246,141.03626406521,1.00657610722699,119.547302344635,1,-0.0143295309922656,-0.00382842779557485,-0.00231136000813725,-0.000974978556773991,-0.00228921701436275,NaN
94,3.10012910108955,141.072999320839,1.00683828682211,119.639210851132,1,-0.0151245023831461,-0.00383486622209895,-0.00277861733924417,-0.00123432217981973,-0.00276213861587938,NaN
95,3.13346382260665,141.084043087043,1.00691710620426,119.420836088754,1,-0.0138144130021017,-0.0033825617088516,-0.002746570873792,-0.0013734353918254,-0.00275281372209018,NaN
96,3.16679854412374,140.896737536675,1.00558030610536,118.877480431849,1,-0.00824986777041586,-0.00249706449465379,-0.00239217837299296,-0.00137402362519615,-0.0024151021069941,NaN
97,3.20013326564083,140.958011858403,1.00601762106578,119.213971745947,1,-0.010666706302613,-0.00120398320414799,-0.00176989475315499,-0.00123349184792339,-0.00177996851153561,NaN
98,3.23346798715792,141.380462141325,1.00903264960542,119.38784013398,1,-0.0133671690962369,0.000569191280284971,-0.000466396333139037,-0.000962454011522933,-0.000449662805400282,NaN
99,3.26680270867501,140.996406951026,1.00629164692094,119.60038576685,1,-0.0118071436045065,0.00275946663489776,0.00184974533563601,-0.000585625468455248,0.00187096857503214,NaN
100,3.30013743019211,139.091256602596,0.99269458495879,118.913218835256,1,-0.00227138509691799,0.00487552150123651,0.00461685776614068,-0.000138305032464014,0.00462287232448275,NaN
101,3.3334721517092,139.535486604082,0.995865055394692,119.263353271473,1,-0.00277956595364121,0.00614933918314376,0.00652678963265589,0.000334950177481775,0.00652508637930848,NaN
102,3.36680687322629,139.930414222929,0.99868365462412,119.249727449464,1,-0.00252856335918,0.00603849725069731,0.00651166164544969,0.000788919660681924,0.00651500504848982,NaN
103,3.40014159474338,141.530920984485,1.01010647467906,119.158334449708,1,-0.00606208629318467,0.00456149263030774,0.0044523386995151,0.0011778009512318,0.00446060667829226,NaN
104,3.43347631626047,141.855766346191,1.01242489669487,119.060249619731,1,-0.00774967547415789,0.00226980607985226,0.00116317204787812,0.00146227947610013,0.00117299590208425,NaN
105,3.46681103777757,142.681530482171,1.01831837703478,119.073138385232,1,-0.0126521408928287,-5.87757988131012e-06,-0.00204957969197584,0.00161111813002913,-0.00203991234484702,NaN
106,3.50014575929466,143.159137509134,1.02172705937028,118.925524460211,1,-0.0131951598999806,-0.00150047194735223,-0.00397761936723686,0.00160638135594114,-0.00396751342042165,NaN
107,3.53348048081175,143.082285167685,1.02117856405101,118.630530940279,1,-0.0140779763654187,-0.0018274584953834,-0.00404170578740414,0.00144295381658375,-0.00402959285651841,NaN
108,3.56681520232884,143.070136949494,1.02109186219276,118.523161941767,1,-0.0126075054819583,-0.00112766863080355,-0.00254563043480477,0.00113129974510466,-0.00253280638654739,NaN
109,3.60014992384593,142.374363614381,1.01612612646647,118.153338413885,1,-0.00815674801614158,1.73137667016747e-05,-0.000525724234845171,0.000696231938961724,-0.000513964595633744,NaN
110,3.63348464536303,141.705942427819,1.01135560308075,118.143999923828,1,-0.00902723388990528,0.000885150407287902,0.000782537557581275,0.00017457832252649,0.000792150917375618,NaN
111,3.66681936688012,141.91002928406,1.01281217139425,117.973962103151,1,-0.00784926765681054,0.000956994735301277,0.000560103131442302,-0.000385348558089348,0.000561465678832403,NaN
112,3.70015408839721,141.19833984974,1.00773284243513,118.120557854331,1,-0.00691461981295255,0.000129431133832495,-0.00121457769423321,-0.000929922896938567,-0.00121903269292947,NaN
113,3.7334888099143,142.025178959769,1.01363399486703,117.792740222043,1,-0.0116951985566678,-0.0012372514724551,-0.00367415776803548,-0.00140441307069101,-0.0036683842355102,NaN
114,3.76682353143139,142.952881469741,1.02025500959216,118.482387903274,1,-0.0159264470209163,-0.00250712124424577,-0.00545729820883878,-0.00175714026035601,-0.00543727039608885,NaN
115,3.80015825294849,142.931794964763,1.02010451516269,118.238041882547,1,-0.0151990235492275,-0.00321201598393053,-0.00566636524916895,-0.00194592985055577,-0.0056489806329766,NaN
116,3.83349297446558,141.664976616808,1.01106323000316,118.233184985574,1,-0.0100850094876165,-0.00340096046391931,-0.00462115848226467,-0.00194291219587292,-0.00461941599328438,NaN
117,3.86682769598267,141.223346139964,1.00791131237998,118.157993753535,1,-0.0102088296018344,-0.00352939593664542,-0.00357890589146782,-0.00173907300533368,-0.00359119995463849,NaN
118,3.90016241749976,139.589588049155,0.996251177519654,118.506258895071,1,-0.00835258579052195,-0.00402036720079165,-0.00369862243735354,-0.00134438856187396,-0.0037176442669584,NaN
119,3.93349713901685,139.926323138572,0.998654456546633,118.093384995056,1,-0.00893390378874265,-0.00488154112101024,-0.00512726291466326,-0.000790905911532513,-0.00513826480418718,NaN
120,3.96683186053395,141.533443855241,1.01012448041284,118.354072688301,1,-0.0142206760876109,-0.00561286602137861,-0.0067807195677319,-0.000129590372504312,-0.00676959020983702,NaN
121,4.00016658205104,140.745299486308,1.00449949242786,118.104326227004,1,-0.0144974396574389,-0.00550128094051873,-0.00705019656262866,0.000574777173207166,-0.00702276995730606,NaN
122,4.03350130356813,140.884323440757,1.00549170667721,118.09494648242,1,-0.0171637142428093,-0.00419021507126849,-0.00513289164864957,0.00124711595310256,-0.00512497511859796,NaN
123,4.06683602508522,138.697891317126,0.98988713610589,117.294446930556,1,-0.00126342174951119,-0.0020802222037806,-0.00191020235714853,0.00181480053055883,-0.00195067639831207,NaN
124,4.10017074660231,138.107026961631,0.985670135983297,116.93155286668,1,0.00215841588088231,-6.01274568478691e-05,0.000762674575281565,0.00220823449078128,0.000700906807152019,NaN
125,4.13350546811941,139.282660392208,0.994060634199623,116.484051914688,1,0.00346221782464654,0.00130870642211347,0.00196125132237112,0.00237736793898255,0.00194391061501945,NaN
126,4.1668401896365,143.221230869468,1.02217021981092,116.802747171779,1,-0.0118683844083385,0.00223636755544581,0.00258828165409481,0.0022911432132042,0.00262839206076465,NaN
127,4.20017491115359,143.112852641888,1.02139672417738,116.849374576551,1,-0.00872441999949478,0.00313420339527095,0.00385668972167291,0.00195019765600387,0.00387687850939633,NaN
128,4.23350963267068,140.602252846311,1.00347856826346,114.737908114239,1,0.0136726263707687,0.0038019666120088,0.00530400229905188,0.00138226166088752,0.00525091663513733,NaN
129,4.26684435418777,140.926829200762,1.00579507037394,115.097945355949,1,0.0115249905746481,0.00370256843860162,0.00545751983559557,0.000639305684911434,0.00539413912910428,NaN
130,4.30017907570487,142.526245452292,1.01721010745658,117.108391280635,1,-0.00705226493068808,0.00292562531254552,0.00419082121803705,-0.000200670014856516,0.00417535964645286,NaN
131,4.33351379722196,141.161646609257,1.0074709627022,116.660600798995,1,-0.00183500188420357,0.00221408449293651,0.00297093504634885,-0.00104312642656712,0.00297240755647475,NaN
132,4.36684851873905,139.577925286744,0.996167940360291,116.903690641139,1,0.00180127621839168,0.00210616136047551,0.00298371916283296,-0.00179466825145536,0.00296551876518885,NaN
133,4.40018324025614,139.701338497315,0.997048740698423,116.732678339002,1,0.00349891081704037,0.0025336030098929,0.00415855631844197,-0.00236569176980663,0.00412936859261645,NaN
134,4.43351796177323,138.586894834376,0.989094953979804,116.689826662429,1,0.00308384322126368,0.003098250426261,0.00570513648590255,-0.00268471499267566,0.00568296110101442,NaN
135,4.46685268329033,139.10706229793,0.992807390238952,116.351097621726,1,0.00323483246248216,0.00339763519380233,0.00677918983184904,-0.00270716758805283,0.00676523582349667,NaN
136,4.50018740480742,138.419706385096,0.987901729672816,117.119552905117,1,0.00331716034583554,0.00316973603270438,0.00673739170068054,-0.00242211365422852,0.00671651717874947,NaN
137,4.53352212632451,138.596893741214,0.989166316198514,117.324248645327,1,0.00469714955580139,0.00237800431325529,0.00530627643469772,-0.0018541334064434,0.00526859626971773,NaN
138,4.5668568478416,136.681079189769,0.97549314379747,119.263412146573,1,0.00445799210558542,0.00132243903586804,0.00291590169442722,-0.00106225819339205,0.00287822835510159,NaN
139,4.60019156935869,136.769293382131,0.976122728670118,120.123112673367,1,-0.00309993872400768,0.000654925868044205,0.000879287316275664,-0.000134292242684237,0.000867752546458411,NaN
140,4.63352629087579,136.945007773942,0.977376802646517,120.212497351923,1,-0.00258363014530702,0.00106799767085151,0.000785247815168274,0.000825148765032516,0.000804424921790731,NaN
141,4.66686101239288,138.155084656002,0.986013123847045,120.660787505329,1,-0.00880830710544908,0.00270332271718153,0.00314904863922757,0.0017020415801008,0.00316088135131225,NaN
142,4.70019573390997,140.216723586839,1.00072704514426,117.530703179727,1,0.00920895362168064,0.00475375257038411,0.00645414264599423,0.00239462960181489,0.00641549008511283,NaN
143,4.73353045542706,140.89582104763,1.00557376512115,116.234840374186,1,0.0155575410075614,0.00587923519894978,0.00805628034807718,0.00281576009171566,0.00799502917882902,NaN
144,4.76686517694415,141.714998977214,1.01142023969244,117.950725137873,1,0.00209075327004962,0.00530185176454251,0.00660898881188429,0.00291163536740125,0.00659032662394001,NaN
145,4.80019989846125,142.211224965763,1.01496180559515,118.897334639701,1,-0.00247188654280314,0.00338288100036156,0.00324871162941879,0.00266924911203802,0.00328377626508228,NaN
146,4.83353461997834,142.888226067088,1.01979356385021,120.011683601974,1,-0.0118651444396393,0.00104470716945309,0.000110011745859295,0.00211232314550085,0.000151130133372923,NaN
147,4.86686934149543,140.542828469792,1.00305445636581,119.623138731169,1,-0.00166447835110581,-0.0011425770219072,-0.00186161535425749,0.00130762895961256,-0.00185924196427906,NaN
148,4.90020406301252,140.677088765834,1.00401267237529,119.853545544391,1,-0.00438534524271092,-0.00319639883070311,-0.00336254206015994,0.000348051620683086,-0.00339314242685407,NaN
149,4.93353878452961,139.198778947643,0.993461972156932,120.520636265806,1,-0.00744576072868183,-0.00524592528283293,-0.00537742575906728,-0.000649722954410694,-0.00540512071679643,NaN
150,4.96687350604671,139.272907918195,0.993991030772499,121.095610474851,1,-0.00841253311541254,-0.00705462099121535,-0.00780580295854949,-0.00156500006978311,-0.00779772938417347,NaN
151,5.0002082275638,140.729660000904,1.00438787338831,121.966793409379,1,-0.0233645147707592,-0.00804881431031695,-0.00942203356027931,-0.00228891313663023,-0.00937773436191494,NaN
152,5.03354294908089,140.500975364318,1.00275575066581,120.918656372683,1,-0.0142389784502281,-0.00782885932663024,-0.00913897244880426,-0.00273093932059028,-0.00909702936969654,NaN
153,5.06687767059798,141.324851141455,1.00863575378476,120.877017665304,1,-0.0132713539616053,-0.00663959317657678,-0.00725144026224469,-0.00284149280073366,-0.00723888529209093,NaN
154,5.10021239211507,141.426984223367,1.0093646778008,119.650030681676,1,-0.00603885037960336,-0.00521460094024368,-0.00520830172532415,-0.00260744450647849,-0.0052121287117829,NaN
155,5.13354711363217,142.100086929017,1.0141686131979,119.61861345821,1,-0.00983791730010539,-0.00416384341390034,-0.0042551750073576,-0.00206216209861235,-0.00425051702133108,NaN
156,5.16688183514926,142.889002108602,1.01979910246009,119.52043467893,1,-0.010599514032013,-0.00355872280837129,-0.00447204598728265,-0.00127538902897945,-0.004448282991484,NaN
157,5.20021655666635,143.40999864502,1.02351745581398,119.431965934253,1,-0.0108757157279232,-0.00300785310197432,-0.00493264672894034,-0.000348754959265282,-0.0048960913619809,NaN
158,5.23355127818344,142.985395465871,1.02048706204953,119.383300693594,1,-0.0129031513426885,-0.00203324983159546,-0.00455668317902543,0.000598997233955199,-0.0045199411314014,102
159,5.26688599970053,142.698146426631,1.01843696506463,119.083469255663,1,-0.00669739837392147,-0.000435556196861928,-0.00290701731382588,0.00144844452299442,-0.00288066412211424,102
160,5.30022072121763,142.347617915421,1.01593524235788,118.899877615325,1,-0.00491442234409023,0.00158321055313091,-0.000400354909459099,0.002091753895935,-0.000380520466713663,102
161,5.33355544273472,142.104997936924,1.01420366307145,119.040010837906,1,-0.00309437441089677,0.00357674478803817,0.00210617097916792,0.00245022325108096,0.00212678840743255,102
162,5.36689016425181,141.581359060504,1.01046645133153,118.511076724694,1,-0.000473205418892064,0.00508691399839832,0.00384836133972572,0.00248259855315921,0.00386947272719685,102
163,5.4002248857689,140.916114282873,1.00571859798289,118.344261782383,1,0.000641411181607876,0.00581050355146708,0.00447328772347444,0.00219084647536983,0.00449689898666434,102
164,5.43355960728599,141.089039881805,1.00695276833877,118.155763468178,1,-0.00175611554667121,0.00569051821420451,0.00413720066127168,0.00162006403493889,0.00416522196977915,102
165,5.46689432880309,141.427951255926,1.00937157951417,118.444290227118,1,-0.00112848521798881,0.00487830252041756,0.00331046096274849,0.000853265059656532,0.00334050431459437,102
166,5.50022905032018,141.562026164607,1.01032847241368,118.255150697619,1,-0.00456711461165926,0.00358328162464448,0.00237102436659159,-1.8440594587346e-06,0.00239557510126323,102
167,5.53356377183727,140.886580129427,1.0055078126689,118.251174936843,1,-0.0014111272588514,0.00194873192228446,0.00132558135096021,-0.000824423461152317,0.0013392266578079,102
168,5.56689849335436,140.846653731073,1.00522285788158,118.22060697974,1,-0.00169260077323607,9.48099895873441e-05,-2.65796395604787e-05,-0.00150066157540933,-1.31735332283725e-05,102
169,5.60023321487145,140.779963433087,1.00474688908744,118.118721166738,1,-0.00882045226747763,-0.00172707991472801,-0.00164651206224385,-0.00193746320361659,-0.00162561272087327,102
170,5.63356793638855,141.201980348092,1.00775882467936,117.888541337887,1,-0.00700151665166571,-0.00314808012534397,-0.00317085974597375,-0.00207445243064588,-0.00315680984762694,102
171,5.66690265790564,140.924278913663,1.00577686896967,117.624712214042,1,-0.00556956609476511,-0.0038673194707456,-0.00420804310536993,-0.0018963159327863,-0.00420774300328709,102
172,5.70023737942273,141.59370027214,1.01055453058441,117.470976978799,1,-0.00770636788809131,-0.0037308571882,-0.00442203158289997,-0.00143262540912126,-0.00442406648510041,102
173,5.73357210093982,141.318277133383,1.00858883507561,117.370233441335,1,-0.00465310181138634,-0.00272106826042912,-0.00348146822753293,-0.000753827003254667,-0.00347254848744627,102
174,5.76690682245691,141.674283275707,1.01112965164689,117.68110706565,1,-0.0088468436267668,-0.00103853933462354,-0.00132456638701391,3.52183788686773e-05,-0.0013094302551209,102
175,5.80024154397401,139.62855693514,0.996529298539217,117.013743804023,1,0.000727367349256824,0.000774751513226146,0.0013863055243001,0.00081536427355832,0.00138669740351584,102
176,5.8335762654911,139.432318897127,0.995128747257584,116.513272358894,1,0.00389861441958272,0.00194281904153281,0.0033120994149074,0.00146343766991662,0.00329142324465128,102
177,5.86691098700819,139.153763189633,0.993140694599262,116.862426420795,1,0.00222634555367784,0.00189145804704498,0.00329389175695476,0.00187571017071526,0.00326185020705113,102
178,5.90024570852528,139.284445865053,0.994073377122995,116.046136937675,1,0.00324303718190544,0.000649868270960693,0.00125163729236355,0.00198173624855151,0.00121853016804707,102
179,5.93358043004237,138.882904242079,0.991207573732483,116.13807550047,1,-0.000200574164013978,-0.00109670050978565,-0.001619886133869,0.00175400826379394,-0.00163455284226833,102
180,5.96691515155947,138.720419641915,0.990047920806329,117.74488367354,1,-0.00848898671919951,-0.00231585346477505,-0.00346010726639396,0.00121504378416503,-0.00345258725850993,102
181,6.00024987307656,138.022268806771,0.985065216857427,117.691673349053,1,-0.00457071493782835,-0.00224074054140399,-0.00302974823748419,0.00043701645456285,-0.00302990182590076,102
182,6.03358459459365,137.961633569136,0.984632463041492,117.030507483772,1,0.00330284720772855,-0.000878621458600757,-0.000726046225254363,-0.00047019305692565,-0.000757078969055709,102
183,6.06691931611074,138.193821467973,0.986289588553895,117.041962524655,1,0.00503994526765028,0.00110676321513064,0.00184663583972211,-0.00137145992059234,0.00179005300935721,102
184,6.10025403762783,138.449088104065,0.988111427061635,116.833202340768,1,0.00681017258323613,0.00295105362528975,0.00329209428660259,-0.00212393293837186,0.00322263504307022,102
185,6.13358875914493,140.054541143951,0.999569548715211,116.345314575258,1,0.00807729545900793,0.00420233130880262,0.00342154031148659,-0.00259948788310566,0.00335758350009189,102
186,6.16692348066202,141.193878449975,1.00770100141581,116.365229189524,1,0.00488312086483944,0.0047848851808779,0.00324392897585525,-0.00270366759248704,0.00321185692290797,102
187,6.20025820217911,141.804024133838,1.01205561241869,116.347746337923,1,0.00314003777561267,0.0047770652538183,0.0040457597100014,-0.00239013931662967,0.00405754737065093,102
188,6.2335929236962,142.730792779875,1.01866996215499,117.180553681085,1,-0.00593953877128661,0.00398397616694989,0.00587845475649462,-0.00167288387103133,0.00588726476976248,102
189,6.26692764521329,138.408709079456,0.987823241879803,115.685247188547,1,0.0114584266038861,0.00164663620062754,0.00652688481817204,-0.00062159179580347,0.00645998480036607,102
190,6.30026236673039,138.318481504859,0.987179287493999,114.732041652441,1,0.0162062921685191,-0.00300757435112706,0.00280626588086557,0.000634094115202624,0.00267394601910287,102
191,6.33359708824748,139.117912276334,0.992884826557179,116.313070169702,1,0.00239382388468246,-0.00939917487779216,-0.00588061718529255,0.00192789619860919,-0.00598116258609206,102
192,6.36693180976457,140.670005634307,1.00396212005099,118.957469544213,1,-0.0186755784736597,-0.014926551602293,-0.0153931486019277,0.00307470279700727,-0.0153947252154662,102
193,6.40026653128166,140.874653395055,1.00542269154111,121.335416602289,1,-0.0286219119754791,-0.0162023836682642,-0.0191724037079425,0.00389547068638029,-0.019102635867632,102
194,6.43360125279875,141.963232851842,1.01319188536713,123.221694655722,1,-0.0412754706060121,-0.0115409732976863,-0.0136356819429282,0.00423987909772237,-0.0136407937682641,102
195,6.46693597431585,136.901924412845,0.977069316609598,113.665555201522,1,0.0405489750188029,-0.0025329022011717,-0.00159609751047695,0.0040270140635532,-0.00172619678874012,102
196,6.50027069583294,141.449057879267,1.00952221752844,115.602384679585,1,0.00675810298080257,0.00723506412114141,0.0106205713259252,0.00322003419014028,0.0105126496517638,102
197,6.53360541735003,139.306370520632,0.994229853435038,116.151712779974,1,0.0104140952529042,0.0148135223013644,0.0187805467029213,0.00189570224228404,0.0187723222899749,102
198,6.56694013886712,137.360228559303,0.980340234247167,115.285695276674,1,0.0185292971072919,0.0187210682410493,0.0219570359249857,0.000189733204675328,0.0219696173012824,102
199,6.60027486038421,136.267992279985,0.972544941671208,115.04118210349,1,0.0203322387574333,0.0183785162871873,0.0204345276586828,-0.00169333768399774,0.0204183070151265,102
200,6.6336095819013,136.562760239493,0.974648701205565,115.356201038787,1,0.0142417116656683,0.0140121455379661,0.0149084554701318,-0.00350783153847043,0.0148642430545078,102
201,6.6669443034184,137.820259274937,0.9836234744125,116.273474466992,1,0.00499443793181994,0.0068030663652576,0.0068487614342532,-0.00499936571351314,0.00679864851349566,102
202,6.70027902493549,139.973948370362,0.998994357924046,116.262184669131,1,-0.00592604519916987,-0.00137287417422488,-0.00156638531095166,-0.00594084197334264,-0.00160265180573831,102
203,6.73361374645258,140.750197153987,1.00453444709218,116.933653639104,1,-0.0143809565655081,-0.00852775460173443,-0.00812348748198556,-0.00616543458361156,-0.00813822860033234,102
204,6.76694846796967,141.609968635988,1.01067063793071,117.788282302678,1,-0.0206205121099153,-0.0131722553169422,-0.0114445472131794,-0.00559448365438439,-0.0114460681911269,102
205,6.80028318948677,140.833772715651,1.00513092604798,117.468613872295,1,-0.0159103534280015,-0.0146589944643343,-0.0114753074211041,-0.00425228386878199,-0.0114703879503702,102
206,6.83361791100386,141.11502843556,1.00713824870047,117.913088504633,1,-0.0188319943879456,-0.0130860721795718,-0.00917601985106566,-0.00227234828658826,-0.00916404527977939,102
207,6.86695263252095,140.128735330133,1.00009907277486,117.411048964773,1,-0.0124028026260165,-0.00893527828289034,-0.00571300560501448,0.000120964973615747,-0.00569860886300137,102
208,6.90028735403804,139.720946376128,0.997188682169909,117.24529624417,1,-0.00781395214419359,-0.00276585147073992,-0.00177607668607979,0.00263275894434978,-0.00176314554717175,102
209,6.93362207555513,139.607377493118,0.996378140817866,117.132271760439,1,-0.00697131982928792,0.00488722251468621,0.00267887027759556,0.00493838685864986,0.00268730317127801,102
210,6.96695679707222,138.640594543106,0.989478208911656,116.182716856129,1,0.00249263254192253,0.0133458572355332,0.00808948703998262,0.00672710433416373,0.00808848301750145,102
211,7.00029151858932,137.867785060506,0.983962666042034,116.174940400463,1,0.00933082575151464,0.021507923132521,0.0145800192756425,0.00774201918573584,0.0145858882402015,102
212,7.03362624010641,138.341165115387,0.987341180469076,116.453428860931,1,0.00755703467963961,0.027731431243956,0.0213572878550231,0.0078195800262726,0.0213848633219998,102
213,7.0669609616235,136.337817632687,0.973043285357311,116.503094691838,1,0.0224987540200504,0.0299720117042785,0.0263575142113095,0.00691792063054686,0.0264108062732155,102
214,7.10029568314059,137.653570248128,0.982433814484718,117.888126011932,1,0.0114586343911615,0.0263153865009683,0.0265721616222405,0.00511707793918438,0.0266494433310449,102
215,7.13363040465769,139.539665656015,0.995894881296953,119.396833924286,1,-0.00120527471284318,0.0157749193736632,0.0191021339216776,0.00262366978978189,0.0191505572079232,102
216,7.16696512617478,138.125544889831,0.985802298475017,118.40896051323,1,0.0090169070782091,-0.000994406276439366,0.0026104667998169,-0.000259100353291864,0.00260095545923711,102
217,7.20029984769187,141.019349089647,1.00645538501154,122.653553141002,1,-0.0311257845008252,-0.0210037916863418,-0.0205261941252469,-0.00317966848437258,-0.0205214332489618,102
218,7.23363456920896,142.31337918816,1.01569088049087,125.496164376349,1,-0.0598739834552345,-0.038941942744124,-0.0431060708326802,-0.00576447067181964,-0.0430229901133475,102
219,7.26696929072605,143.965907344331,1.02748497734636,127.398859887111,1,-0.0832391742981461,-0.0490479875795134,-0.056029224880884,-0.00768627160111591,-0.0558988545108255,102
220,7.30030401224314,146.107717511585,1.04277108092309,125.639481076188,1,-0.075457270825829,-0.0480443447453403,-0.0538893591726649,-0.00869625849114632,-0.0537881363173538,102
221,7.33363873376024,143.397981777423,1.02343169140518,123.68229029965,1,-0.0463041600664666,-0.0368475915270475,-0.0383495191715069,-0.00866274305552458,-0.0383085354890562,102
222,7.36697345527733,142.339188126848,1.01587507893947,121.193356042982,1,-0.0295964020520237,-0.0198377875274934,-0.0166327163459353,-0.00758795489226593,-0.0166140941714762,102
223,7.40030817679442,140.741345404665,1.00447127213902,119.370825990201,1,-0.00529906391054671,-0.00250503312997272,0.00303544819355131,-0.00560089094159677,0.00307804721268044,102
224,7.43364289831151,140.512603322686,1.00283873942864,118.493864001657,1,-0.00267692626665553,0.0108235071187091,0.0153462104901369,-0.00294940999100956,0.0154231719772884,102
225,7.46697761982861,140.431146648482,1.00225738297701,117.091371297485,1,0.00657949691265922,0.0181406929642598,0.0192238752384574,4.34362147702793e-05,0.0193133192679229,102
226,7.5003123413457,142.071694120325,1.01396597366376,117.190882338048,1,0.00218081327957351,0.019725651702023,0.0168616934593069,0.00301176723860931,0.0169377871962331,102
227,7.53364706286279,141.049030918256,1.00666722428348,118.146680080483,1,0.00182330371619283,0.0173667307845058,0.011819765209364,0.00560193245248001,0.0118780947496497,102
228,7.56698178437988,141.437062595718,1.00943660716504,119.261288600289,1,-0.00369706582773249,0.0133449527906615,0.00729376631562791,0.00750992161635262,0.00734353331347354,102
229,7.60031650589697,141.793249416418,1.01197871323827,119.836730516827,1,-0.00581116152711586,0.00953252806567118,0.00501931052449031,0.00852189348668454,0.00506776590655243,102
230,7.63365122741406,141.36061984657,1.00889103510687,120.071170380719,1,-0.003740570248078,0.00686412940415438,0.00497006907343989,0.00853566094280315,0.00501572195516692,102
231,7.66698594893116,141.003178357586,1.00633997446351,119.946224536247,1,-0.000696069118907683,0.00535667893370021,0.00593606171364972,0.0075705423749672,0.00598612663368834,102
232,7.70032067044825,142.114318516918,1.01427018407007,119.290284564937,1,-0.00497443596148123,0.00457184329796836,0.00664056097395084,0.00576082944827872,0.00670103919876788,102
233,7.73365539196534,141.709621093093,1.01138185772239,119.151209700123,1,-0.00515344635120524,0.00406020272044799,0.00646772227539128,0.00333820351148517,0.00652408838560981,102
234,7.76699011348243,141.116462406384,1.00714848295319,118.51118205466,1,0.000118828052836084,0.00354066058139759,0.00545644495146415,0.000598690458836229,0.00550108513547246,102
235,7.80032483499952,142.287071434696,1.0155031220002,118.916440511471,1,-0.00851738668254093,0.00297090451843733,0.00409535839482883,-0.00213601697408398,0.00413451289187578,102
236,7.83365955651662,141.93176192255,1.01296727727993,118.724774677278,1,-0.0042756860457896,0.00249067665595792,0.00300698396330087,-0.00455159781671197,0.00303606034113842,102
237,7.86699427803371,141.73945389313,1.01159477447773,118.564755847513,1,-0.00486051216142752,0.00219515848279739,0.00245444951126785,-0.00638590150449155,0.00246622754437114,102
238,7.9003289995508,141.230208510032,1.00796028912929,118.1177804522,1,-1.57153960079204e-05,0.00202348559361152,0.00222791473283958,-0.00745073934624282,0.00223286010469034,102
239,7.93366372106789,141.155071142207,1.00742403358031,118.064754088147,1,-0.00294629434503885,0.00187681288443363,0.00205435801792414,-0.00765604746269481,0.00206804690773952,102
240,7.96699844258498,141.846337614927,1.01235760382041,117.898312049388,1,-0.00465381965047423,0.00170156502651389,0.00185724201175999,-0.00701202748319979,0.00187558283469941,102
241,8.00033316410208,141.062810730631,1.0067655708328,117.603802437831,1,0.0011650136402635,0.00140241499587148,0.00154234527841905,-0.00562529287116808,0.00154991122917011,102
242,8.03366788561917,141.27027971496,1.00824627740143,117.645691119177,1,-0.000186456587569384,0.000818268268447919,0.00086598583361201,-0.00368345872089324,0.00086393632005536,102
243,8.06700260713626,141.057624744305,1.0067285584377,117.565103559655,1,-0.000958666013282705,-0.000130631857914497,-0.000313069397360441,-0.00142593747343838,-0.000318311226051232,102
244,8.10033732865335,140.84733037777,1.00522768711045,117.825754309153,1,-0.00112245347492951,-0.00135628259998535,-0.00187011875157438,0.000883477541832536,-0.00187922925539402,102
245,8.13367205017044,141.193577992481,1.00769885705006,118.522031236367,1,-0.000716839177747619,-0.00265345869456618,-0.00351201542216277,0.00298912288220183,-0.00352305710076192,102
246,8.16700677168754,140.83850047136,1.00516466805021,117.947426557318,1,-0.00319662287883321,-0.0037724661318496,-0.00489646602819685,0.00467171222107548,-0.00490822926687327,102
247,8.20034149320463,141.402366554485,1.00918898144727,118.402807733411,1,-0.00198937846263542,-0.00451348572665112,-0.0057724949805838,0.00577241458406806,-0.00579074782168379,102
248,8.23367621472172,140.902384416214,1.00562060789626,118.261985525035,1,-0.0013455046708733,-0.00483296148409411,-0.00612991202657394,0.00620543236189232,-0.00616107692176944,102
249,8.26701093623881,140.4940755465,1.00270650665182,118.264424035904,1,0.00161421992552163,-0.00485220934225067,-0.00614423211318433,0.0059648174604001,-0.0061835872154366,102
250,8.3003456577559,140.710399649319,1.00425041221936,118.304664325553,1,-0.000385786790286835,-0.00475848958460473,-0.00593912361185761,0.00511805171745383,-0.00597634647551776,102
251,8.333680379273,140.273211950979,1.00113020271552,118.254904634029,1,0.00134808140050918,-0.00473543470845475,-0.00550803066676434,0.00379574539120587,-0.00553873962810197,102
252,8.36701510079009,139.901397218833,0.998476560206098,117.972555550046,1,0.000691209934830128,-0.00498446502777039,-0.00493094323807573,0.00216964672801721,-0.00496039416126696,102
253,8.40034982230718,139.418221676936,0.995028135368035,117.889877514878,1,0.00346851313276947,-0.00573022133452973,-0.00458764541326035,0.00043278953498163,-0.00462407545038232,102
254,8.43368454382427,140.835476594249,1.00514308663304,117.620154289875,1,0.00233841688478459,-0.00711096067617066,-0.00504581091225898,-0.00122629041090481,-0.00509677133841,102
255,8.46701926534136,140.622377870953,1.0036222006058,117.215084199514,1,0.0046611696333832,-0.00898455160203969,-0.00661160970798566,-0.00264179762098998,-0.00667499833246335,102
256,8.50035398685846,141.219724121364,1.00788546202577,116.855123590113,1,0.00167353432028888,-0.0107647408047387,-0.00879802905551202,-0.00369021815582008,-0.00885768297684386,102
257,8.53368870837555,142.291626026264,1.01553562812961,117.077299801268,1,-0.00148528373699869,-0.0114656217890992,-0.010186476813453,-0.00429774885334262,-0.0102267252006372,102
258,8.56702342989264,142.635964586289,1.01799317314199,117.236773921427,1,-0.00140648991394438,-0.0100917728790189,-0.0090863917210429,-0.00444501018263808,-0.00911108118284591,102
259,8.60035815140973,142.347995597761,1.01593793787752,116.905317371136,1,0.00114400179117885,-0.00623319081695257,-0.0047292923177419,-0.00416344317465129,-0.00476514829075869,102
260,8.63369287292682,141.914406713961,1.01284341312047,114.59678066156,1,0.0153385996810457,-0.000443423685752245,0.00196064448366346,-0.00352425904742206,0.00188991586023009,102
261,8.66702759444392,140.8706978591,1.00539446087285,114.351025484125,1,0.0269472477324669,0.00600781366125727,0.00893954168684816,-0.0026282989739236,0.00885527478804898,102
262,8.70036231596101,141.02044932603,1.00646323740088,114.441401524224,1,0.0262231749680867,0.0118923312165531,0.0146366016748616,-0.00158908574343677,0.0145835273539763,102
263,8.7336970374781,141.35381565698,1.00884247359174,114.596292977337,1,0.0226752522143563,0.0164995137692795,0.0187520182123322,-0.000517476573845434,0.0187246139721673,102
264,8.76703175899519,138.176184467262,0.986163713243479,115.168797710222,1,0.0357945814504824,0.0194172250613164,0.0214095470704295,0.000490779512609668,0.0213693271955074,102
265,8.80036648051228,138.217487844226,0.986458495529973,115.206706537804,1,0.0363349123552128,0.020283708879441,0.0222974103934154,0.00135832619592327,0.0222411531777451,102
266,8.83370120202938,138.495507641503,0.988442723395976,115.270571455294,1,0.0338023801735533,0.0190134491457797,0.0210513026236604,0.00203778831421574,0.0210014673875213,102
267,8.86703592354647,140.530352976961,1.00296541874777,114.65900839364,1,0.0253054853656321,0.0160117515058257,0.0178415562810771,0.00250570626770446,0.0177946364874632,102
268,8.90037064506356,139.78772914175,0.997665310905755,114.908380351191,1,0.0324358907288943,0.0120351577852469,0.0133254874159293,0.00276308421751708,0.013278208479097,102
269,8.93370536658065,142.617251909481,1.01785962072905,115.331583784213,1,0.0146667534030509,0.00799865743421034,0.00851703923818038,0.00282032379815537,0.00847891245282372,102
270,8.96704008809774,141.915711014131,1.01285272191347,115.136686239085,1,0.0186110851154612,0.00478388478766961,0.00462400963718943,0.00270457915013036,0.0045960455144282,102
271,9.00037480961484,143.059163502653,1.02101354468004,115.59319627998,1,0.0096034541742214,0.00290858866753726,0.00248816611772365,0.00243736928700157,0.00246198027939773,102
272,9.03370953113193,142.123030394988,1.01433236076181,115.696591465314,1,0.0135262325425972,0.00227509652392191,0.00205914523792606,0.0020447055419824,0.00203093721741603,102
273,9.06704425264902,141.995437359582,1.01342172900523,115.306970888829,1,0.0143463342596202,0.00223663885284052,0.00243092129384125,0.00154544284042457,0.00240662802829961,102
274,9.10037897416611,141.892556181046,1.01268746582203,115.800814981538,1,0.0102470014296125,0.0019467848135493,0.00239642044022744,0.000957829581733182,0.00238636456950239,102
275,9.1337136956832,142.251049916706,1.01524603635209,116.093439803584,1,0.00833506031024614,0.000715862804269615,0.000978595333354145,0.000301712513033187,0.000969894921417007,102
276,9.1670484172003,141.841164605129,1.01232068403882,116.527931436907,1,0.0072741260809254,-0.00182328301083864,-0.0023824732209729,-0.000398741427274389,-0.00240824386550258,102
277,9.20038313871739,142.475174254869,1.01684561221535,115.936202961626,1,0.00943404552079954,-0.00555652053166661,-0.00750702088287134,-0.00111001964751851,-0.00752880722312192,102
278,9.23371786023448,140.298141619272,1.00130812580949,121.138320799045,1,-0.0141955139697048,-0.00975305294319878,-0.0130833292930174,-0.00179194840229014,-0.0130787247468804,102
279,9.26705258175157,139.68527379452,0.996934086881476,120.707405872875,1,-0.00961884870396676,-0.0134212380009588,-0.0173138113967133,-0.00238722629595252,-0.0173044504868881,101.890081259126
280,9.30038730326866,139.815188768091,0.997861290315527,120.82162397217,1,-0.0115976545882196,-0.0159904591871977,-0.019305660138734,-0.00284085026782952,-0.0193090687969329,101.697765558065
281,9.33372202478576,140.134668249369,1.00014141603167,120.841217437784,1,-0.0124818033562699,-0.0175161636742426,-0.019478103445398,-0.00309389388610847,-0.0194790609419126,101.505449857005
282,9.36705674630285,140.444080659892,1.00234969304309,120.921857867861,1,-0.0145191603432163,-0.0183544688519895,-0.0188654818566309,-0.00309794582928894,-0.0188555332169024,101.313134155945
283,9.40039146781994,140.368776522578,1.00181224725992,121.082367602713,1,-0.0140229550747235,-0.0188170257768655,-0.0184264560631838,-0.00282220493005955,-0.018412047032573,101.120818454885
284,9.43372618933703,140.079212815,0.999745630482317,121.190737751178,1,-0.0122066033118501,-0.018936226670918,-0.0186046544402991,-0.00226239561706346,-0.0185916710682343,100.928502753825
285,9.46706091085412,140.483162456904,1.0026286199089,121.721209620913,1,-0.0154083105152693,-0.018312755529672,-0.0189904340902934,-0.00144643300674947,-0.0189778766526383,100.736187052765
286,9.50039563237122,140.458236992519,1.00245072681822,121.73682271416,1,-0.0160429397657832,-0.016214823244921,-0.0183929360893371,-0.000434374683638503,-0.0183868612191506,100.543871351705
287,9.53373035388831,138.173668797606,0.986145758903958,121.636446501758,1,-0.0055628368106326,-0.0119583657437165,-0.0154280691325359,0.000684002184669898,-0.0154208401623567,100.351555650644
288,9.5670650754054,138.08884934173,0.985540402272613,121.94769214551,1,-0.00573455234870032,-0.00526444556260392,-0.00910732216035514,0.00179409856010509,-0.00907122424895485,100.159239949584
289,9.60039979692249,139.395164637919,0.994863577233065,121.733981971471,1,-0.00792703075341958,0.00341862211337325,0.000473128006441041,0.00277369285618896,0.000512700884941846,99.9669242485241
290,9.63373451843958,139.651618632037,0.996693889917489,116.239470990498,1,0.0280577524283187,0.0126063900647352,0.0113090384583178,0.00350940995472354,0.0113107732495967,99.7746085474639
291,9.66706923995668,140.115589799843,1.00000525309809,115.976016057125,1,0.0271445429348856,0.0201932803775496,0.0201565558211865,0.00389850068609566,0.0201495145156692,99.5822928464038
292,9.70040396147377,140.243378216609,1.00091727929185,116.018372983802,1,0.0274970899399768,0.0245868970398631,0.0247382337317662,0.00388345830756784,0.0247562311082977,99.3899771453436
293,9.73373868299086,140.162562289688,1.0003404958549,115.742751725449,1,0.0285578828608624,0.0253247830912278,0.0248301852657706,0.00344747866651865,0.0248565368160325,99.1976614442835
294,9.76707340450795,140.602406835411,1.00347966728399,115.905574285942,1,0.0270137367595484,0.0228586976122441,0.0215890818738656,0.00262419628609402,0.021610113161637,99.0053457432234
295,9.80040812602504,140.498996569092,1.0027416280002,116.424588754738,1,0.0215110702120312,0.0181861530129098,0.0166877088694029,0.0014959645439314,0.0167100434721013,98.8130300421632
296,9.83374284754214,141.222900803468,1.00790813401249,117.294040356778,1,0.0113508945653253,0.0125055602788354,0.011699292485608,0.000184891636338539,0.0117239401069195,98.6207143411031
297,9.86707756905923,141.062265305344,1.0067616781314,117.697209696014,1,0.0109472398815418,0.0067946590704335,0.00745388640327759,-0.00115960710442415,0.00746776562620364,98.4283986400429
298,9.90041229057632,140.700507418979,1.00417981135104,117.66745034514,1,0.0103601767385916,0.00158952733111107,0.00385925435588062,-0.00238229187982669,0.00386746060118399,98.2360829389828
299,9.93374701209341,142.002770766619,1.01347406754636,118.583639895718,1,-0.000193042128216803,-0.00282797313762276,0.000545348701301907,-0.00333990783318076,0.00056264098106047,98.0437672379226
300,9.9670817336105,142.514932143978,1.01712936435183,118.917221867431,1,-0.000262696205829527,-0.00618923070540757,-0.00248995522632021,-0.00391702976509961,-0.00246733148313193,97.8514515368625
301,10.0004164551276,143.277783526298,1.02257383623925,119.307725180802,1,-0.00382394886554249,-0.00823562186603204,-0.00487020543270916,-0.00404671429891805,-0.00484928740200998,97.6591358358023
302,10.0337511766447,142.392472229614,1.0162553676907,119.717746202478,1,-0.00479832635344801,-0.00879685870377222,-0.00608396852110168,-0.00371421612147459,-0.0060628054309055,97.4668201347422
303,10.0670858981618,142.873365733713,1.01968750562029,119.601859759396,1,-0.00469598206771571,-0.00786285149101445,-0.00573414051630321,-0.00296195548192116,-0.00571066432161735,97.274504433682
304,10.1004206196789,142.790346521064,1.01909499732857,119.601305511701,1,-0.0046535763332437,-0.00569341849216571,-0.00386323850374798,-0.00188337719583587,-0.0038432923131282,97.0821887326219
305,10.133755341196,141.447250362872,1.00950931728021,119.14782543368,1,0.00189241273261076,-0.00288730654414663,-0.00117543385160909,-0.000610174071287215,-0.00116896278075758,96.8898730315617
306,10.1670900627131,140.501368680599,1.00275855776491,119.059202934998,1,0.00654506854718362,-0.000239895749450221,0.0012213486772788,0.000702605976379006,0.00122159328052439,96.6975573305016
307,10.2004247842301,140.567291773563,1.00322905101523,118.967071071814,1,0.00388487261499315,0.00160066241218459,0.00251196986333798,0.00189754847127398,0.00252056969509427,96.5052416294415
308,10.2337595057472,140.365839828045,1.00179128806499,118.993982347095,1,0.00547841863615972,0.00236089546088514,0.00258720395945512,0.00283583519738245,0.00260439898987847,96.3129259283813
309,10.2670942272643,140.774398564365,1.00470717260791,118.800058100615,1,0.00170070859042282,0.00206751199798275,0.00177358302392178,0.00341099096688958,0.00178637617809773,96.1206102273212
310,10.3004289487814,140.112925312544,0.999986236646755,118.853251972852,1,0.005054720441377,0.000863319172837433,0.000354119761595539,0.0035658541164343,0.000354081773352337,96
311,10.3337636702985,140.008753679299,0.999242763485644,118.953300015069,1,0.00333899661300241,-0.00103235130618373,-0.00151568866142609,0.00329418186633993,-0.00151602325240486,96
312,10.3670983918156,141.403408629035,1.00919641873548,119.140921477914,1,-0.00415734102673049,-0.00323958674458706,-0.00355693457605948,0.00264300940251633,-0.00354580158427964,96
313,10.4004331133327,141.200353942106,1.00774721701649,119.098783897022,1,-0.00387059146475144,-0.00527448403626863,-0.00539552515753636,0.0017054598627068,-0.00538630884428466,96
314,10.4337678348498,141.15901055953,1.00745214920987,119.219654127746,1,-0.00340023150467339,-0.00673703800074926,-0.00685302162419569,0.000604943548025099,-0.00685882447599503,96
315,10.4671025563669,141.368288108729,1.00894576350969,119.302257782293,1,-0.0049940903793948,-0.00734705658488354,-0.0078669655800218,-0.000518926273138884,-0.0078836982461081,96
316,10.500437277884,141.531680251179,1.01011189356702,119.215117035478,1,-0.00344222224599344,-0.00684769592235716,-0.00810657366791762,-0.00152831088460065,-0.00811890332344758,96
317,10.5337719994011,142.228229001626,1.01508316343414,119.32241719377,1,-0.00757540682170221,-0.00502566042690057,-0.00691692273735661,-0.00230626923958473,-0.00691475056703074,96
318,10.5671067209182,141.898659415912,1.01273102462185,119.11005159113,1,-0.00463717579546896,-0.00195156987755824,-0.00389009041247343,-0.0027670469893733,-0.00388673565290167,96
319,10.6004414424353,141.064590872975,1.00677827571237,117.933546629772,1,0.00516901555105398,0.00177092999805529,0.000422917510776837,-0.00286800966375784,0.000413609446481862,96
320,10.6337761639523,140.387398931342,1.00194515542964,118.591488018367,1,0.0066847795568955,0.00513052548404914,0.00457519273467688,-0.00261331970767999,0.00455903360921455,96
321,10.6671108854694,140.091157884819,0.999830882470226,118.301168352206,1,0.00849185091615001,0.0071639687045046,0.00704063901346024,-0.00204841261683865,0.00701938164121138,96
322,10.7004456069865,140.472682262652,1.00255382274092,117.774954349594,1,0.0125348027141848,0.00735146248088252,0.0069745546341144,-0.0012552089386852,0.00694831174489926,96
323,10.7337803285036,141.039977809458,1.00660261222735,117.930290976696,1,0.00729965400051635,0.00582748342393956,0.00464647009522551,-0.000341174065624837,0.00462865825087539,96
324,10.7671150500207,141.525253196731,1.01006602366618,118.705755782679,1,0.00119664967286537,0.00334298302252694,0.00139041872568618,0.000577386855377325,0.00138594112124137,96
325,10.8004497715378,141.461635788154,1.00961198609008,118.962232902791,1,-0.000673187393858132,0.000855878187804804,-0.00120734293804843,0.00138773169129754,-0.00121152956064188,96
326,10.8337844930549,141.507137360711,1.00993673090718,118.992936203348,1,-0.000297885815486398,-0.000985177917457977,-0.0023196772212294,0.00199408131062721,-0.0023331859072495,96
327,10.867119214572,141.52775785074,1.010083899387,118.883179145982,1,-0.00116748853361481,-0.00204700288338059,-0.0021938179341167,0.00232865805666558,-0.00221675076473795,96
328,10.9004539360891,140.895059935778,1.0055683330643,118.328578481605,1,0.00258798773052826,-0.00255202836788676,-0.00167788394754765,0.00235959305593775,-0.00170138923101769,96
329,10.9337886576062,141.715309429129,1.0114224553884,118.707855695501,1,-0.00231882779275061,-0.00276295442806886,-0.00147161717178712,0.00209053858991921,-0.0014870339991535,96
330,10.9671233791233,141.649451791342,1.01095242929182,118.950141326497,1,0.00119358282051907,-0.00275833360643432,-0.00166791320602115,0.00156370210819699,-0.00167330205467338,96
331,11.0004581006404,141.997413526466,1.01343583291235,118.908187757512,1,-0.0042732624748687,-0.00242852318261505,-0.00183795025815374,0.000847643624580801,-0.00183975433259535,96
332,11.0337928221574,141.512845568874,1.0099774704006,118.753973379719,1,0.000174386595953008,-0.00163991979709415,-0.0014784802332378,3.53073933678685e-05,-0.00148665534380593,96
333,11.0671275436745,141.324741356051,1.00863497024611,118.414389705524,1,-0.000496710739108092,-0.000415039409898541,-0.000430930744677225,-0.000773949940107195,-0.000450982637894374,96
334,11.1004622651916,141.24705774634,1.00808054216354,117.955960050153,1,0.00453022389724675,0.00102859049276386,0.00106775367971161,-0.00148027049464838,0.00104541944977538,96
335,11.1337969867087,140.795592786436,1.0048584358145,117.741434668631,1,0.00338336890288235,0.00239649503681842,0.00267040728831982,-0.00199961101479943,0.00266179090704291,96
336,11.1671317082258,141.095230163888,1.00699694839475,117.867832253685,1,0.00346480848503536,0.00343683700355115,0.00412884841423124,-0.00226922530769291,0.00413864250734309,96
337,11.2004664297429,141.282344831088,1.00833238616009,117.491918453541,1,0.00218438782803318,0.00392356167584523,0.00513018107250928,-0.00225730938423953,0.00513747734145209,96
338,11.23380115126,140.029941388256,0.999393980208124,117.502525120672,1,0.00860341540466222,0.00360987420831471,0.00509315179612172,-0.0019637347227912,0.00507922062007965,96
339,11.2671358727771,140.493922442524,1.00270541394843,117.54355187556,1,0.00716332443820719,0.00240530753533864,0.00357241938051495,-0.00142328923891545,0.00355105350274103,96
340,11.3004705942942,140.507241095099,1.0028004691993,118.07535052442,1,0.0020644432597757,0.00068104095962786,0.00104594026801554,-0.000697945498590729,0.00104693515301784,96
341,11.3338053158113,141.973320550584,1.01326388129384,119.222362290255,1,-0.00738023780313804,-0.000788911659822776,-0.00109077397045786,0.000127403137324734,-0.00107030031891302,96
342,11.3671400373284,141.018966201166,1.00645265233567,119.192056418527,1,-0.000737165968566128,-0.00137593310229507,-0.00166118105323515,0.000957749490474138,-0.00164749947011707,96
343,11.4004747588455,140.798437067407,1.00487873545365,118.93671186946,1,0.000258857422774844,-0.0010385527842389,-0.000655686126833348,0.00169307892973503,-0.000653290939098787,96
344,11.4338094803626,140.985423118632,1.00621325528651,118.973981421292,1,0.000625147995629044,-0.000210547476285586,0.00101959619649856,0.00224566092121193,0.00102513119363538,96
345,11.4671442018796,141.05888223656,1.00673753316252,119.136296938571,1,-0.000616804735982496,0.000552585012854996,0.0023080637754227,0.00254650397697278,0.00231544987390735,96
346,11.5004789233967,140.504387356348,1.00278010205995,118.822298287415,1,0.00468054718247854,0.000812107104919838,0.00248060206961443,0.00255544371245606,0.0024859680326881,96
347,11.5338136449138,141.113182543269,1.00712507456338,118.925085291422,1,-6.77844261956217e-05,0.00042772348669551,0.00145731533312596,0.00226284368692655,0.00146992989055195,96
348,11.5671483664309,141.487804638227,1.00979875322698,119.610343984075,1,-0.00266693178213409,-0.000358275245459232,-8.43644427650013e-05,0.00169594491579833,-5.88509156522235e-05,96
349,11.600483087948,141.760475562134,1.01174480617271,119.311590413208,1,-0.00630324090860926,-0.00113402187341027,-0.00122202144160208,0.000912217895511166,-0.00119754763761316,96
350,11.6338178094651,141.183749098988,1.00762870821695,119.107025790878,1,-0.000903592833372407,-0.00166829767078641,-0.00155453820331475,-3.23224723741916e-06,-0.00154072919346725,96
351,11.6671525309822,141.271458898375,1.00825469323589,118.989166610542,1,-0.00373176494703434,-0.00200558189056791,-0.00136446250562193,-0.000950776291145343,-0.00135263725951044,96
352,11.7004872524993,141.236739971924,1.00800690418627,119.317202205035,1,-0.00298646426038066,-0.0022805002413873,-0.00115092767719602,-0.00182214916045419,-0.00112998425769756,96
353,11.7338219740164,141.351780146573,1.00882794614978,119.507153075823,1,-0.00598812986467404,-0.00255272871892766,-0.0012334980061828,-0.00251720840518589,-0.00120776787375826,96
354,11.7671566955335,141.510224631677,1.00995876476642,119.027391636863,1,-0.00242496505052606,-0.0027753229828313,-0.00168151760691406,-0.00295144852733875,-0.00165750595370818,96
355,11.8004914170506,141.574267844911,1.01041584131123,119.173465479873,1,-0.00501224002539472,-0.00277907070013391,-0.00227888186663154,-0.00306979255350945,-0.00225342375647785,96
356,11.8338261385677,141.60590918154,1.01064166559595,119.300324403165,1,-0.00671841743026538,-0.00228412119090746,-0.00251826043147767,-0.00284952301764769,-0.00248961654485153,96
357,11.8671608600847,141.42957692956,1.00938318195025,119.048098678315,1,-0.00433630901885088,-0.00105679393020848,-0.00188533798630938,-0.00230569489657191,-0.00185958145838298,96
358,11.9004955816018,141.868949333488,1.01251898370237,118.525775645458,1,-0.00200390497575734,0.000896083058872847,-0.000229889728786086,-0.00149023589369386,-0.000206080878400221,96
359,11.9338303031189,141.306598195504,1.0085054824719,118.721339031951,1,-0.000672824010796297,0.00328514809382081,0.00215472245227118,-0.000486094465755388,0.00218134500767621,96
360,11.967165024636,141.010319223616,1.00639093883908,118.80205504955,1,0.00188792984700367,0.00561246713859387,0.00464554516932454,0.000601280182274429,0.00467254370928142,96
361,12.0004997461531,140.694840299269,1.00413936510599,118.113559344154,1,0.00587937621147147,0.00729296851494154,0.00645207846680411,0.00165492611119308,0.00647677800031987,96
362,12.0338344676702,140.749272002933,1.0045278442872,118.13173475558,1,0.00521611628042482,0.00785423552109006,0.00692334090802284,0.00255862889841684,0.00694864639608491,96
363,12.0671691891873,141.379141440179,1.00902322375862,118.090012214465,1,0.0034706648564424,0.00712701144530545,0.00585725663047737,0.00321101998645898,0.00588209471327273,96
364,12.1005039107044,141.141747501999,1.00732894273269,118.27104175635,1,0.00310977287417388,0.00528080363983709,0.00353663096329325,0.00353601318585548,0.00355792646778686,96
365,12.1338386322215,141.405791938325,1.0092134284188,118.118089269933,1,0.000682025540739789,0.00274810573694956,0.000594926182212791,0.00349118319281446,0.000619795978187374,96
366,12.1671733537386,142.182624108572,1.01475768121845,119.407536720782,1,-0.00606678409409281,9.99210868566545e-05,-0.00217363918984036,0.00307322284152128,-0.00214246792702636,96
367,12.2005080752557,141.794033996294,1.01198431278646,119.456888133082,1,-0.00468999605801385,-0.00217788781566182,-0.00419637383462034,0.00232024890643456,-0.00416939914583291,96
368,12.2338427967728,141.563914409349,1.01034194882029,119.620050683244,1,-0.0052931869503669,-0.00387979103124843,-0.00543972781322024,0.00130504921696044,-0.00542211500965383,96
369,12.2671775182899,142.245107305602,1.01520362392439,119.036969819184,1,-0.00673469505811336,-0.00504954002046304,-0.00624761967848222,0.000130795130572445,-0.00623588422055779,96
370,12.3005122398069,142.069666410847,1.01395150189704,119.247755378148,1,-0.00452226586229715,-0.00580567635203702,-0.00690428328326988,-0.00108044444555939,-0.00689082638440696,96
371,12.333846961324,142.263284963439,1.01533335790583,119.490045903289,1,-0.00979050794992437,-0.00621472886667024,-0.00737504432537485,-0.00220231255734795,-0.00735524150463495,96
372,12.3671816828411,141.883061160354,1.01261969983979,119.666795726981,1,-0.0066140127646081,-0.00630788744581944,-0.00744096943578684,-0.00311345363683635,-0.00742111740931321,96
373,12.4005164043582,142.334502078523,1.01584163460292,119.216091711205,1,-0.00732210571098518,-0.00618745637048124,-0.00706258580844269,-0.00371560517955724,-0.0070512644764133,96
374,12.4338511258753,141.826407187647,1.01221536031985,119.104190754721,1,-0.00285079851458464,-0.00603715818214135,-0.00650578813887464,-0.0039395033800417,-0.00650035168885966,96
375,12.4671858473924,142.396398357866,1.01628338847612,118.99065100093,1,-0.00517616987229325,-0.00598687861300442,-0.0060904176565958,-0.00375706153306778,-0.0060844798873963,96
376,12.5005205689095,142.242468865641,1.01518479337296,119.179727937234,1,-0.00472037572882694,-0.00600555374458725,-0.00594030443620479,-0.00318098993732532,-0.00593818222512393,96
377,12.5338552904266,141.625223133848,1.01077950931336,118.720576067078,1,-0.000217927779335325,-0.00591799634302972,-0.00595286946108191,-0.00226666115292103,-0.00595913276525716,96
378,12.5671900119437,141.947275682979,1.01307799902008,118.88015059285,1,-0.00265063920655279,-0.00543714057526643,-0.00576930298904029,-0.00110716687774642,-0.00577594730717025,96
379,12.6005247334608,141.86538934117,1.01249357602986,118.50796781566,1,-0.00134186325151836,-0.00422270750177333,-0.00480079711154184,0.000179010232567725,-0.00480459151510442,96
380,12.6338594549779,141.741513403355,1.01160947320644,118.230805693991,1,0.00264004140002655,-0.00207132728711421,-0.00257856657319116,0.00145744296314194,-0.00258247866886642,96
381,12.667194176495,141.032985449592,1.00655270774057,118.105855029947,1,0.00626205696503351,0.000906047779822678,0.000856829723943656,0.00259323028765205,0.000853535547284417,96
382,12.700528898012,140.855143456386,1.00528344906863,117.675856165131,1,0.00952974202892537,0.00427458584853805,0.00487558345604518,0.00346585388709893,0.00486766431123203,96
383,12.7338636195291,140.076291395371,0.999724780304405,117.260464965085,1,0.0166072811765356,0.00739316505744646,0.00844612752500368,0.00398268186927214,0.00842428673465643,96
384,12.7671983410462,139.395162106649,0.994863559167385,116.952160535237,1,0.0203045435313956,0.00964877611073897,0.0106061784057554,0.00408798076647376,0.0105738869852916,96
385,12.8005330625633,140.237485687384,1.00087522429863,116.971899738122,1,0.0196846491523687,0.0107455161089133,0.0110833655896262,0.00377065841969295,0.0110540794338365,96
386,12.8338677840804,139.953491506901,0.998848357247377,117.137817196354,1,0.0175950344202077,0.0107915735278799,0.0104731473902769,0.00306522121186475,0.0104517353062754,96
387,12.8672025055975,140.34358718137,1.00163247087982,117.13506908995,1,0.0185154045586044,0.0100751525953817,0.00969679594581593,0.00204813393372441,0.00968055161393347,96
388,12.9005372271146,140.256988481053,1.00101441577723,117.392177803994,1,0.0136702264168572,0.00874288336238142,0.00920430783807984,0.000827870505157824,0.00918188628905122,96
389,12.9338719486317,140.278997219054,1.00117149218569,117.050228700701,1,0.0195334140537934,0.00663858009397303,0.00853704709195749,-0.000463456141815465,0.00849692347128508,96
390,12.9672066701488,139.758894586421,0.997459518624962,117.20864498645,1,0.0182549485819251,0.00349014860793559,0.00670450472722865,-0.00169046444487319,0.00665898154215831,96
391,13.0005413916659,141.66558931181,1.01106760280865,117.786254214075,1,0.00783755897685373,-0.000654446111786695,0.00315841416707065,-0.00272556476406961,0.00312093586433432,96
392,13.033876113183,140.794677260091,1.00485190170109,117.550801855533,1,0.0106922406680279,-0.00519006685854545,-0.00162352250402545,-0.00346222017727954,-0.00165325360723345,96
393,13.0672108347001,141.872570073083,1.01254482492832,118.281218342773,1,-0.00259070991427574,-0.00908698198810954,-0.00631962248010405,-0.00383341626318842,-0.00634426843855501,96
394,13.1005455562172,141.450224538641,1.0095305439788,118.33627486657,1,-0.000285196279348809,-0.011245159752559,-0.00937332872971627,-0.00380775276319409,-0.00940211305845851,96
395,13.1338802777342,141.107754815985,1.00708633686257,118.644117697624,1,-0.00107420900237304,-0.0109226978952025,-0.00970449512882432,-0.00340218293575543,-0.00974267637735373,96
396,13.1672149992513,141.797421939036,1.01200849254079,118.529495438627,1,-0.00118328743594293,-0.0080313207334756,-0.00713267147138286,-0.0026717091119394,-0.0071801633151003,96
397,13.2005497207684,140.967322262741,1.00608406944073,117.851925484132,1,0.0097423723200542,-0.00320321206864045,-0.0023962811111406,-0.00170312260081531,-0.00245098776291062,96
398,13.2338844422855,139.499634271369,0.995609177222252,117.75800175576,1,0.0193028122913966,0.00245555021228646,0.00330895510471512,-0.000605928711114061,0.00328325289533872,96
399,13.2672191638026,141.598962218023,1.01059208510301,119.397227661781,1,-0.00110092996713457,0.00775399669862302,0.00884786885065562,0.000500209188419468,0.00884324156063107,96
400,13.3005538853197,137.330029836045,0.980124705897053,117.611096035795,1,0.0319872074311459,0.0114590833539371,0.01279615136746,0.00151247569302922,0.0127545071510475,96
401,13.3338886068368,138.303103255156,0.987069532894187,118.249056446151,1,0.026025028939872,0.0124371728837104,0.0134182192357137,0.00232988141654472,0.0133475236983711,96
402,13.3672233283539,139.364017642275,0.994641281060977,118.099142853334,1,0.0201166859879105,0.0104021624996029,0.0101909438000623,0.00289061993418057,0.0101464423418987,96
403,13.400558049871,141.006680032251,1.00636496592281,119.050079013101,1,0.00859595634335544,0.00628965872808332,0.0046936335908305,0.00315852648411848,0.00468186191298486,96
404,13.4338927713881,142.002479959889,1.01347199205812,118.835080345326,1,0.00376869694838058,0.00160771578064328,-0.000667176241672085,0.00313125550753584,-0.000675888640434147,96
405,13.4672274929052,141.491356684842,1.00982410419098,119.39816576087,1,0.00438931137969459,-0.00245077698498399,-0.00441145891247762,0.00283421662702663,-0.00444159325806411,96
406,13.5005622144223,139.584310462876,0.996213511375505,119.890912563949,1,0.00229467772421701,-0.00534262291430045,-0.00644519417485904,0.00231487145907008,-0.00648752212529983,96
407,13.5338969359393,139.047159478062,0.992379863690132,120.778325685735,1,-0.000942654757022682,-0.00696969655645307,-0.00731575806254106,0.00163580367924111,-0.00734921919479796,96
408,13.5672316574564,139.426421281698,0.995086655964119,121.366444433721,1,-0.00302957489208164,-0.00740436910808105,-0.00743703395369645,0.000865453192853849,-0.00745497559469954,96
409,13.6005663789735,139.152213901546,0.993129637326992,121.423922755093,1,-0.00235728777261776,-0.00680461177316823,-0.00693651049429244,7.08814094814785e-05,-0.00694405926810657,96
410,13.6339011004906,139.117223994273,0.992879914286691,121.114680972864,1,-0.00269602764256868,-0.00542184794156011,-0.00586124730214393,-0.000688275769758634,-0.00586560792472378,96
411,13.6672358220077,138.668759329704,0.989679221051637,121.039676304739,1,-0.00049233633210885,-0.00359279936807865,-0.00437512682038307,-0.00136207059726466,-0.00438222585192703,96
412,13.7005705435248,139.515967312847,0.995725746172931,120.548093211753,1,0.000229861893990685,-0.00170356096365589,-0.00281799031917196,-0.00191301956271412,-0.00283180363055895,96
413,13.7339052650419,139.392262604286,0.994842865413052,120.347498781874,1,0.0032590654356929,-0.000120046228209268,-0.00158608609834486,-0.00231409376141793,-0.00160409477417663,96
414,13.767239986559,139.244960220679,0.99379156799774,120.030121822441,1,0.00271694326399199,0.000912975791243081,-0.000879919042659462,-0.00254899955568579,-0.000891923592559252,96
415,13.8005747080761,138.619667228272,0.989328850622566,120.726911503325,1,0.000540570750561825,0.0013249980895005,-0.000565697204253479,-0.00260885716821004,-0.000565391351777679,96
416,13.8339094295932,139.106603723431,0.992804117391811,120.522681239265,1,0.000217928295833031,0.00113446690808342,-0.000397657908732863,-0.00249144218885764,-0.000390941821143354,96
417,13.8672441511103,139.258122606051,0.993885507969261,120.692668743175,1,0.00169290301223671,0.000325367498458834,-0.000377916224057035,-0.00220095678199805,-0.000368746022956806,96
418,13.9005788726274,139.589746248532,0.996252306588933,120.383966908797,1,-0.00204671811045884,-0.00112935492951233,-0.000802521396582309,-0.00174914771688811,-0.000790803505209636,96
419,13.9339135941444,139.292286423249,0.994129335202991,120.464131820603,1,-0.00206869663680895,-0.00313382534098313,-0.00200780903528348,-0.00115466742785262,-0.00199774304917798,96
420,13.9672483156615,139.672590579304,0.996843566748346,120.473283058109,1,-0.00220491044046597,-0.00533867068241124,-0.00402315725365931,-0.000447427720012282,-0.00401140359086861,96
421,14.0005830371786,140.128456027234,1.00009707938949,120.318808013692,1,-0.00928921526353052,-0.00706338048189828,-0.00624093926832,0.000330836766738646,-0.0062199001992018,96
422,14.0339177586957,139.84653751872,0.998085026413362,119.822811879902,1,-0.00985287825475287,-0.00743766286053658,-0.00749520867007054,0.00112860509645785,-0.00747146936883052,96
423,14.0672524802128,142.406922073416,1.01635849625568,118.229952239912,1,-0.00766879693132991,-0.00579462888034334,-0.00667095923060707,0.00188314606757347,-0.00665174838700771,96
424,14.1005872017299,141.579325283375,1.01045193625997,117.405651764889,1,-0.00403373476581345,-0.00201100334958337,-0.00325922970363251,0.00252661716279907,-0.00323592390411971,96
425,14.133921923247,142.224799809134,1.01505868928026,116.728677680826,1,6.7197674355951e-05,0.00339538833727769,0.00246211464360626,0.00299171323158281,0.00250047682405446,96
426,14.1672566447641,141.730950046007,1.01153408250328,116.858841419507,1,0.00123085049489971,0.00929180980516051,0.0093099326329222,0.00321889388373753,0.00934735241720973,96
427,14.2005913662812,139.428383101503,0.995100657476109,116.190671289001,1,0.0146923653225227,0.0140483672854643,0.0151301419580393,0.00316713021257859,0.0151372871739933,96
428,14.2339260877983,138.018992061141,0.985041830717115,115.994951754683,1,0.0268960229631668,0.0160745208179376,0.0176198150012875,0.00281739202219687,0.0176251462534854,96
429,14.2672608093154,136.537256830162,0.974466683320622,118.35723169865,1,0.00415761052587973,0.0147193081128071,0.0159793035537348,0.00217744134201586,0.0160278410704387,96
430,14.3005955308325,136.522082580088,0.974358384666575,118.623184105844,1,0.00506626265636959,0.010562319380509,0.0113134931040819,0.00129452588079129,0.0113795151733488,96
431,14.3339302523496,136.799875004771,0.97634098977391,118.89840092135,1,-0.000325979210899691,0.00477021990056275,0.0051768970997794,0.0002375289755093,0.00520831949455359,96
432,14.3672649738666,136.092873505817,0.971295118619159,118.975284132254,1,0.00469938894871483,-0.00144521264946629,-0.00136548094104936,-0.000894829195062541,-0.00135763169760489,96
433,14.4005996953837,138.905043380458,0.991365580808712,121.421766576062,1,-0.01512250485722,-0.00678143848735749,-0.00713430122160844,-0.001994474516608,-0.00710743173003728,96
434,14.4339344169008,138.435637768728,0.988015431990622,121.333568303101,1,-0.0167593027671386,-0.00994143408918673,-0.010514999163685,-0.00294330364027807,-0.0104625741689378,96.0048519340225
435,14.4672691384179,139.144404898606,0.993073904456918,121.283627972466,1,-0.0176642095260962,-0.0102263850416105,-0.0104443469008459,-0.00363885704014958,-0.0103942412813505,96.0376294379724
436,14.500603859935,138.15604658384,0.986019989128001,120.445514016856,1,-0.0108641106131351,-0.00798380448559039,-0.00737025621201311,-0.00399770312893487,-0.00733705875241933,96.0704069419223
437,14.5339385814521,137.237814634049,0.979466565810406,120.121507615922,1,-0.00556072132924179,-0.00439753715774819,-0.00297554442838595,-0.00397014428338054,-0.00295083401770719,96.1031844458723
438,14.5672733029692,136.692092375652,0.97557174492781,119.824120682185,1,-0.00513261444284541,-0.000862678111047591,0.000887826008054873,-0.00354519978920033,0.000917941803700463,96.1359619498222
439,14.6006080244863,136.256554125386,0.972463307538271,119.620018630794,1,-0.00226324044542225,0.00154900159736769,0.00300270650967413,-0.00275278291548244,0.00303567301140143,96.1687394537722
440,14.6339427460034,136.178036662888,0.97190292824664,119.847236695297,1,0.00082023529105979,0.00233994407781219,0.00299508103452412,-0.00166316095387067,0.00302880834061776,96.2015169577221
441,14.6672774675205,137.121925031393,0.978639461477467,120.136707112558,1,-0.00471652469246242,0.00165655064864136,0.00128573136344667,-0.000380333143017338,0.00132306770671518,96.2342944616721
442,14.7006121890376,136.856313985035,0.976743794892342,120.261317286508,1,-0.00433026247548751,0.00016374855731687,-0.00116309878820744,0.00097096816720755,-0.00112752248980327,96.267071965622
443,14.7339469105547,137.016336874812,0.977885878586392,120.439834836609,1,-0.0070498740798447,-0.00129141751014802,-0.00334141679998585,0.00225379391320348,-0.00331612321442872,96.2998494695719
444,14.7672816320718,136.714042840492,0.9757284054406,120.119582211214,1,-0.00380710173215748,-0.00200375947901921,-0.00452802012456867,0.00333740900943679,-0.00450863170643606,96.3326269735219
445,14.8006163535888,137.331193242523,0.980133009131482,120.457704175934,1,-0.00875107693631783,-0.00158152437698169,-0.00430615049657998,0.00410683398058876,-0.00428534090377904,96.3654044774718
446,14.8339510751059,136.609439842234,0.974981853626506,120.082078853047,1,-0.0037602761707356,-6.22954627844026e-05,-0.0026111294936927,0.00448054421427692,-0.00258988740675072,96.3981819814218
447,14.867285796623,136.454742627396,0.97387777928547,119.941580985271,1,-0.00170993285722842,0.00202485976208496,9.94492305140803e-05,0.00441369003941693,0.000120478493407172,96.4309594853717
448,14.9006205181401,136.014978683793,0.970739183113875,119.906950259807,1,0.000910223361296536,0.00379656074971942,0.00287654927459821,0.00390785075111062,0.00290211063389481,96.4637369893216
449,14.9339552396572,135.805205732873,0.969242033130941,119.970301350475,1,0.00143078490907234,0.00432073798599132,0.00454372605855414,0.00300896645028666,0.00456999724926633,96.4965144932716
450,14.9672899611743,136.011561868964,0.970714797299398,120.129175673277,1,0.00220056450503048,0.00293656404626685,0.00401518591335825,0.00180416823142082,0.00403085872120649,96.5292919972215
451,15.0006246826914,136.634679224394,0.975161987148989,120.485452103559,1,0.000238646489859717,-0.000460717529106316,0.000721857390498122,0.00041195684842117,0.000719383900655903,96.5620695011715
452,15.0339594042085,137.327702330989,0.980108094488669,121.361156159466,1,-0.00275295248572482,-0.00520872251543647,-0.00484486090495938,-0.00102915066084399,-0.00485560704963954,96.5948470051214
453,15.0672941257256,139.070460684742,0.99254616445022,122.71948988223,1,-0.012352155598334,-0.00990075585022881,-0.0108622786497259,-0.00237650449834934,-0.0108631799539198,96.6276245090714
454,15.1006288472427,139.556831680656,0.996017395250184,123.176549754504,1,-0.0164477420862035,-0.0128284347582284,-0.014738346749385,-0.00349581247503835,-0.0147235540235796,96.6604020130213
455,15.1339635687598,138.767682551026,0.990385236286036,123.485370893492,1,-0.0180321330039778,-0.0127548235604612,-0.0144754278349114,-0.00427776795861831,-0.0144581954328472,96.6931795169713
456,15.1672982902769,137.916588940342,0.984310979432974,123.212345072302,1,-0.0102531030536579,-0.0095675687814639,-0.0099360597798025,-0.00464622006206127,-0.0099357518966057,96.7259570209212
457,15.2006330117939,137.54216262392,0.981638698041197,122.792511593058,1,-0.00160018421430108,-0.00435916207469131,-0.00301622905274903,-0.00456771946401715,-0.00304162609646557,96.7587345248711
458,15.233967733311,136.264543120247,0.972520325011052,121.03596677783,1,0.0111350405387962,0.0011717700197619,0.00353147742967678,-0.0040514876621323,0.00350070146864572,96.7915120288211
459,15.2673024548281,140.092399481858,0.999839743750854,120.015686392087,1,0.0067356696193398,0.00562046618409308,0.00780419580309483,-0.00315166463376233,0.00779257758333351,96.824289532771
460,15.3006371763452,140.217070415055,1.00072952045795,120.203271838806,1,0.00891036542033641,0.00838165726538196,0.00950993594611498,-0.00195467210022029,0.00950589393041232,96.857067036721
461,15.3339718978623,138.771430364544,0.990411984438834,120.542757357735,1,0.0143498879049174,0.00951165472222647,0.0093687084601272,-0.000576131796860516,0.00934993904040226,96.8898445406709
462,15.3673066193794,139.077793586805,0.992598499387351,120.339432415424,1,0.0124132633347294,0.00942467117232138,0.00833314912118517,0.000852799708488231,0.00830505304151129,96.9226220446209
463,15.4006413408965,140.021566382401,0.999334207774083,120.201518944376,1,0.0104907170529648,0.00870822526435399,0.00729188869311932,0.00219965753278052,0.00726492295262772,96.9553995485708
464,15.4339760624136,140.168040918686,1.00037959684135,120.216204951435,1,0.0102195378181222,0.00788135322094737,0.0067879741641853,0.00334058647912844,0.00675828644210428,96.9881770525207
465,15.4673107839307,140.04755235525,0.999519669715848,120.190115717468,1,0.0130045962315778,0.00715345822806902,0.0067430215989011,0.00417214609920544,0.00670608340846932,97
466,15.5006455054478,139.620119365505,0.996469079587347,120.202443735304,1,0.0116428166723264,0.00642810683875013,0.00663259324019112,0.00461909253664942,0.00659164957815599,97
467,15.5339802269649,137.863165793556,0.983929698324294,120.47487332088,1,0.0128412062980668,0.00551399590389255,0.00600030871823543,0.00464245108181109,0.00596379780983657,97
468,15.567314948482,137.518295028873,0.98146835496617,120.628518810839,1,0.00770146827881568,0.00431129934802851,0.00479929225692137,0.00423946330309025,0.00477058769003622,97
469,15.600649669999,137.390036974434,0.980552976967377,121.452071742701,1,0.00857184168420944,0.00283501874900815,0.00328981598874095,0.00344711707878389,0.00326375433251332,97
470,15.6339843915161,137.883881428262,0.984077545851874,122.431558540193,1,0.004017632310513,0.00112044606772435,0.00167058112086736,0.00233451744592051,0.00163535429136053,97
471,15.6673191130332,137.996661181322,0.984882455181831,122.217984345513,1,0.00510195158257043,-0.000855524899109322,-0.000170377314503593,0.00100148359111126,-0.000225557976265161,97
472,15.7006538345503,137.203964393738,0.979224976575561,121.457003160217,1,0.00785776914590361,-0.00310120460272956,-0.00245162605963782,-0.000433253902119352,-0.0025127629485117,97
473,15.7339885560674,139.704926367898,0.997074347338165,119.125617565641,1,-0.00344117763669508,-0.0054012069656949,-0.0049423617104772,-0.00184217113201017,-0.00498343163367662,97
474,15.7673232775845,140.100597924103,0.999898256050049,119.717927211266,1,-0.00457674173806602,-0.0073138532813482,-0.00689583726034713,-0.00309516149931217,-0.00692171821171271,97
475,15.8006579991016,140.25153492651,1.00097549374722,119.777229763739,1,-0.00442849054029373,-0.00850501312264055,-0.00778134452110959,-0.00407707260598855,-0.00781491870778722,97
476,15.8339927206187,140.266181596631,1.00108002706205,119.357438726233,1,-0.0029875590226778,-0.0089793909345448,-0.00780327354396405,-0.00469367459492383,-0.00785264548381669,97
477,15.8673274421358,140.024928029566,0.99935819985683,119.031508830916,1,-0.00213463104202308,-0.00894034199308124,-0.0075569497617238,-0.00488193632299544,-0.00761396329633732,97
478,15.9006621636529,140.136916420105,1.00015746123085,118.682078424548,1,-0.00353723320913304,-0.00851214081308617,-0.00734699953764971,-0.00461644352739861,-0.00739741645342464,97
479,15.93399688517,140.22728718986,1.00080243760079,118.402204522595,1,-0.00466556187896452,-0.0076212325500429,-0.00689437681309109,-0.00391256724233429,-0.00693226715651152,97
480,15.9673316066871,139.620686732794,0.996473128888861,118.110582515208,1,-0.00429185663267331,-0.00612167915077148,-0.00566040744302065,-0.00282689152729101,-0.00569174551700803,97
481,16.0006663282042,139.783288371552,0.997633617119702,118.228030199629,1,-0.00251468982147066,-0.00402350339613658,-0.00344355642935005,-0.00145341744691289,-0.0034803348296385,97
482,16.0340010497212,138.422898548272,0.987924512147984,120.976268975332,1,0.00383675403740977,-0.0015880403672946,-0.000663589261895438,8.43151802420287e-05,-0.000707980240370639,97
483,16.0673357712383,138.404229837718,0.987791273522291,120.869319183747,1,0.00398075908019666,0.000827467082918347,0.0019598363764799,0.00164185003553392,0.00191899081960349,97
484,16.1006704927554,137.037400994957,0.978036213255273,120.549661101141,1,0.00579567360563124,0.0030180604036969,0.00397344134726098,0.00306966398693906,0.0039437212103247,97
485,16.1340052142725,137.340439423535,0.980198999144416,120.798686226699,1,0.00441415109753715,0.00500291976289802,0.00539054216282769,0.00422437345263165,0.00536314356008121,97
486,16.1673399357896,135.908726360556,0.969980860064006,119.97878877708,1,0.00927192429683196,0.00689687902395159,0.00647623055139993,0.004986106323845,0.00644137984333619,97
487,16.2006746573067,136.558323397621,0.974617035455984,119.17318187243,1,0.00991362336147014,0.00879092237462267,0.00757589195215337,0.00526822738310805,0.00754251423587322,97
488,16.2340093788238,138.877732030773,0.991170659649736,119.178765504199,1,0.00744564726038208,0.0107080996150386,0.00908545521339636,0.00503031145742778,0.00906754957567469,97
489,16.2673441003409,137.479326857589,0.981190239047429,119.460976643318,1,0.00842081650847301,0.0124770157670245,0.0111505498103258,0.00428362314797751,0.0111425303373589,97
490,16.300678821858,135.700522058006,0.96849490552772,119.61400122902,1,0.0122687721453827,0.01357389745272,0.0131861311282447,0.00309153573109341,0.0131761411592014,97
491,16.3340135433751,135.244070878979,0.965237212522522,119.512319858941,1,0.0129029322396524,0.0132444222814974,0.0139486898838277,0.00156537633214712,0.0139374500756086,97
492,16.3673482648922,135.738087102354,0.968763007326631,120.257509004242,1,0.0070669042246749,0.0109113206603183,0.0122642989429101,-0.0001450123608923,0.0122521771225317,97
493,16.4006829864093,136.101559990621,0.9713571140791,120.003930064928,1,0.00718656730668119,0.00653903415848623,0.00776319183317686,-0.00186438479072853,0.00775122736816292,97
494,16.4340177079263,137.241505598868,0.979492908233923,121.355606169453,1,-0.00354973852325149,0.000793155310680652,0.00127284921696119,-0.00341425169922,0.00127628605334688,97
495,16.4673524294434,137.925217945051,0.98437256465736,121.887498184027,1,-0.0146220523434137,-0.00508170778806755,-0.00533345183813412,-0.00462712746306646,-0.00530765791492655,97
496,16.5006871509605,138.728705167706,0.990107054620972,122.098376619986,1,-0.0208689225755961,-0.00978307850101103,-0.0101193176200591,-0.00536840623279849,-0.0100918477512021,97
497,16.5340218724776,139.084341927957,0.992645234911645,121.738781134491,1,-0.0175780177470765,-0.0125632482513251,-0.0122446644746933,-0.00555100258668913,-0.0122288580149981,97
498,16.5673565939947,139.482109905684,0.995484105788248,121.945191764545,1,-0.0211974901861805,-0.0133853597326928,-0.0121341414968511,-0.00514861105674821,-0.0121187032823906,97
499,16.6006913155118,139.396356289935,0.99487208205596,121.847371819006,1,-0.0206018751365459,-0.0126401446310074,-0.0107462007781131,-0.00419608342285966,-0.0107200744905577,97
500,16.6340260370289,139.354739929767,0.994575066007694,121.816764086977,1,-0.0190039194882437,-0.0108392042255223,-0.0089095186367754,-0.00279088914352924,-0.00887309520676428,97
501,16.667360758546,139.522194507006,0.995770189670477,121.813693300693,1,-0.0182482296071179,-0.00843309917330897,-0.00705778712326112,-0.00108170108288891,-0.00701318287119276,97
502,16.7006954800631,139.313906176464,0.994283635426237,122.071829943107,1,-0.0174229725046347,-0.00572826026181901,-0.00523299787658249,0.00074738885715816,-0.00518580492068824,97
503,16.7340302015802,139.401898244777,0.994911634999088,121.504504644163,1,-0.0144476712994187,-0.00292062830229891,-0.00330083832600182,0.0024970772831281,-0.00325626278408514,97
504,16.7673649230973,138.924928799722,0.991507503086973,121.471524759756,1,-0.0127491133470055,-0.000180004298183066,-0.00119130016618655,0.00397465576152065,-0.00114812231191551,97
505,16.8006996446144,139.296645747325,0.994160447707905,121.142274342573,1,-0.0107269225085877,0.00230329625064756,0.00100971198000773,0.00501689213703635,0.00105611197795587,97
506,16.8340343661315,138.70141518375,0.989912285949251,121.045489435937,1,-0.00879787904673562,0.00431198119046066,0.00307196107952549,0.00550819942977185,0.00312501661236867,97
507,16.8673690876485,138.526870708224,0.988666561667787,120.871384586015,1,-0.00911734441623929,0.00561865508152387,0.00465470357307518,0.00539418259850871,0.00471179165197959,97
508,16.9007038091656,138.2109262461,0.986411665390629,121.219030138902,1,-0.00701005005645078,0.0060239137650708,0.00535769714842182,0.004689072607728,0.00541145971185873,97
509,16.9340385306827,138.177048141359,0.98616987728729,121.478050116391,1,-0.00756460039068146,0.00544079710479369,0.00487863359799943,0.00347288699839308,0.00492773942213303,97
510,16.9673732521998,138.162895115218,0.986068867110559,121.348793385628,1,-0.00867315108661232,0.00402613400686264,0.00330338480534877,0.00188397311582967,0.00335698548479123,97
511,17.0007079737169,138.943016036293,0.991636591731644,122.078056808169,1,-0.0152644529388679,0.0022241300717128,0.00123271087041665,0.000101569956258284,0.00129384027910077,97
512,17.034042695234,138.855265218029,0.991010313960893,122.319276545364,1,-0.0142761300730832,0.000592807708866401,-0.000545751272985437,-0.00167222636159136,-0.000485631397784314,97
513,17.0673774167511,138.720470826836,0.990048286113217,122.263532913918,1,-0.0155522894354724,-0.000449048356622082,-0.00153892107080955,-0.00323933591077608,-0.00148488178395178,97
514,17.1007121382682,139.102236625814,0.992772949407121,122.302015813644,1,-0.0155762661381569,-0.00072669831168642,-0.00168639197730436,-0.00442509864038286,-0.00163604051068985,97
515,17.1340468597853,138.960508093535,0.991761432580223,122.288377909086,1,-0.0156724153897775,-0.000282484092463644,-0.00120797133227894,-0.00510015034750069,-0.00116222875191175,97
516,17.1673815813024,138.612811096289,0.989279918394476,122.149435545622,1,-0.0122066080866455,0.000681975825280131,-0.000417567025194087,-0.00519383962819629,-0.000374604533631975,97
517,17.2007163028195,138.730524780193,0.990120041199043,122.09633611874,1,-0.013192270669635,0.00189804070895807,0.000467139518939362,-0.00470353719514375,0.000513931692533673,97
518,17.2340510243366,138.600550441519,0.989192414076126,122.281666078915,1,-0.0126819820604916,0.00309862514201599,0.00138354591633803,-0.00369207098866482,0.00143356966029085,97
519,17.2673857458536,138.353075832937,0.987426187284771,121.922581820548,1,-0.0111874944822531,0.00398239108994086,0.00220460721110788,-0.00228167856668233,0.00224707282681647,97
520,17.3007204673707,138.099332669265,0.985615221802828,121.755018427037,1,-0.00830424510296429,0.00418528464683831,0.00253790953478787,-0.000638383065112587,0.00256756619212494,97
521,17.3340551888878,138.363931946055,0.98750366738646,121.957487616994,1,-0.00845368039048283,0.00340952167871554,0.00191589943718183,0.00104692050504055,0.00194015587051843,97
522,17.3673899104049,138.466294103382,0.988234226314213,122.030985571044,1,-0.0109683946391113,0.00162548401248011,0.000200431589606918,0.00258141620463587,0.000228603591321965,97
523,17.400724631922,139.044529318737,0.992361092237607,122.543187226274,1,-0.0144077590974547,-0.000872574547417985,-0.002291512569264,0.0037920960055987,-0.00226238920712741,97
524,17.4340593534391,139.042803197688,0.992348772908125,122.711933171152,1,-0.0129714974225046,-0.00359137820329998,-0.00501654666497457,0.00454609779131794,-0.00499104322691419,97
525,17.4673940749562,139.406622652529,0.994945353106944,123.699606629414,1,-0.0171517421714693,-0.00597336361263979,-0.00740398770249681,0.0047635598444888,-0.00737890492041268,97
526,17.5007287964733,139.292264021351,0.994129175320605,124.206760518201,1,-0.0187916239692814,-0.00750305932420809,-0.00894099808765391,0.00442923580452074,-0.00891977412071521,97
527,17.5340635179904,139.198814107389,0.993462223092113,124.265981184886,1,-0.0168289071889764,-0.00787212115533411,-0.00935323503254553,0.00359124622635256,-0.00934736504326663,97
528,17.5673982395075,138.679247230817,0.989754073223494,124.01835274676,1,-0.0135747590444211,-0.00709399370222192,-0.00868840034887645,0.00235545489228431,-0.0086963352025551,97
529,17.6007329610246,138.292879563306,0.986996566384387,124.198431149216,1,-0.0116972384608009,-0.00543033097181231,-0.00707439776265074,0.000872660616969097,-0.00707848280559574,97
530,17.6340676825417,138.475933282758,0.988303021157281,124.341037730923,1,-0.0137370993737534,-0.00328288295018904,-0.00456497396480081,-0.00067970768381987,-0.00455843383736111,97
531,17.6674024040588,137.577892789434,0.98189370430609,124.784316151312,1,-0.0110279294859565,-0.00126700496067984,-0.0015527055671688,-0.00211746703762863,-0.00155977756043483,97
532,17.7007371255758,135.273986768409,0.96545072228703,123.787107493384,1,0.00429736373271278,-0.00023744467720823,0.000845183298042639,-0.00327163161632888,0.000819096794267232,97
533,17.7340718470929,134.861139446956,0.962504230103175,125.389040835708,1,-0.00539653815696733,-0.000865175097863598,0.00141870546369692,-0.00401306188964834,0.00140213874843246,97
534,17.76740656861,135.311454143809,0.965718127022453,125.202395139998,1,-0.00610266879914617,-0.00311776754172207,-0.000170529286507061,-0.00425751942978069,-0.000175227997556806,97
535,17.8007412901271,135.999558458914,0.970629128937142,124.503387440164,1,-0.00631572242409167,-0.00624873783719531,-0.00334723168281295,-0.00398578490974411,-0.0033664261648527,97
536,17.8340760116442,136.966212395948,0.977528140077462,123.307500270475,1,-0.00753977899276875,-0.00908812069221302,-0.00700230942247204,-0.00324047637571647,-0.0070440909750633,97
537,17.8674107331613,137.104302656661,0.978513690552693,124.06707290947,1,-0.0099476000147502,-0.010285732164467,-0.00954699824529875,-0.00212178136282293,-0.0095994110037573,97
538,17.9007454546784,137.213312405471,0.979291693354557,123.61433573324,1,-0.00704297925695357,-0.00862956377272959,-0.00906809414197768,-0.000774325607021549,-0.00910549832523214,97
539,17.9340801761955,137.557422863472,0.981747610402324,123.419443991743,1,-0.00736418544655643,-0.00351945107068108,-0.00403785307835389,0.000628970014846265,-0.0040424924130593,97
540,17.9674148977126,137.51429197677,0.981439785175065,123.378555323248,1,-0.00563720638296955,0.00447194601721818,0.00540477780809597,0.00191129340984495,0.00539501858067863,97
541,18.0007496192297,136.822486659329,0.97650236919908,119.403291295492,1,0.02804733983572,0.0133193391899198,0.0164927459947327,0.0029168975377028,0.0164373204448778,97
542,18.0340843407468,136.65264480419,0.975290207529007,119.296720211489,1,0.0295578166221641,0.0202750202784752,0.0249697309795108,0.00351999138683895,0.0248989263513989,97
543,18.0674190622639,136.531028400409,0.974422231004641,119.620742231848,1,0.0284035881137877,0.023333999077144,0.0278623001378985,0.00365677539103913,0.027813114343273,97
544,18.1007537837809,136.861087920204,0.976777866477479,119.673288411274,1,0.0280486154745331,0.0220806122498737,0.0249975874076902,0.00332204161050892,0.0249641953399379,97
545,18.134088505298,138.77698849214,0.990451652806941,120.106038069942,1,0.0189308778169058,0.017497341788057,0.0183999185451505,0.00257151104996083,0.0183703028366003,97
546,18.1674232268151,139.352840308735,0.994561508408476,120.051558326564,1,0.0124345841217225,0.0112979502386539,0.010880127684526,0.0015164890156405,0.0108445010525482,97
547,18.2007579483322,140.423163897104,1.00220041006398,120.368488817375,1,0.0079424003881419,0.00518073491414548,0.00471999985591192,0.000305179232371186,0.00467750663363095,97
548,18.2340926698493,140.947388477387,1.00594180197358,120.510633883183,1,0.00227453498773525,0.000278143855364392,0.000928130979543427,-0.000896973278389126,0.000886760405642362,97
549,18.2674273913664,140.189978793055,1.00053616749592,121.063207231336,1,0.00144111222656676,-0.00302933252716164,-0.000770031003905102,-0.0019290260787863,-0.000806375699300369,97
550,18.3007621128835,138.812427661224,0.990704582229712,121.240079955886,1,-0.000158099833491215,-0.00497898650993573,-0.00144278409477633,-0.00265819616123888,-0.00147541246321678,97
551,18.3340968344006,138.575198181741,0.989011474945852,121.789013037669,1,0.000377863798941364,-0.00607164978220629,-0.00220559816068957,-0.00299549220445332,-0.00223364822538744,97
552,18.3674315559177,139.190593604291,0.993403553344562,121.768854896962,1,-0.00418097765523803,-0.00668609022548283,-0.00355368133846758,-0.00290893320154498,-0.0035771440731525,97
553,18.4007662774348,139.081101155659,0.992622105513072,122.263205999213,1,-0.0037955646613814,-0.00689781556299451,-0.00517542185889568,-0.00242409764720163,-0.00519591226371018,97
554,18.4341009989519,139.578976973998,0.996175446254391,121.606425097144,1,-0.00637835203048306,-0.00655929334097002,-0.00628577138292508,-0.00162252043021,-0.00630197967132512,97
555,18.467435720469,139.560440602629,0.996043152133736,121.123059230225,1,-0.00709950892973696,-0.00552769571460576,-0.00619747580876671,-0.000626344287085611,-0.00620995136912486,97
556,18.5007704419861,139.363272117421,0.99463596024856,121.65873403237,1,-0.00432811429460508,-0.00390707994598202,-0.00484702638819301,0.000418127174739384,-0.00486179467944147,97
557,18.5341051635031,138.326602877145,0.987237249744738,121.835489579505,1,-0.00124815292598532,-0.00213012399455112,-0.00292932814083765,0.00136142774591208,-0.00294651324262557,97
558,18.5674398850202,138.405127811957,0.987797682366285,121.482565466448,1,-0.00118712631779191,-0.000783362249454991,-0.00147645780209416,0.00207216266230149,-0.0014921048287235,97
559,18.6007746065373,138.568245382658,0.988961852804471,121.364573104201,1,0.000667502792762315,-0.000319999159878758,-0.00122918302042862,0.00245584447501738,-0.00123857170785644,97
560,18.6341093280544,138.866506534007,0.991090543256187,121.799187124932,1,-0.0033827820727966,-0.000856615735979356,-0.00224721773782702,0.0024655390682051,-0.00224614004804866,97
561,18.6674440495715,139.16453759918,0.993217591582396,121.88686878547,1,-0.00659797609240328,-0.0021679569546922,-0.00398994864884156,0.00210999451424324,-0.00398364172651795,97
562,18.7007787710886,140.462948470365,1.00248435264531,121.281851036657,1,-0.00637477690543306,-0.00386809926663712,-0.00578834109710805,0.00144982504123202,-0.00578470698442915,97
563,18.7341134926057,140.435572443973,1.00228896988854,120.846426043878,1,-0.00876328314837635,-0.00557624340037957,-0.0072223026916878,0.000587621339122451,-0.00721786878666846,97
564,18.7674482141228,141.88700902082,1.01264787572807,120.770653164254,1,-0.0116274965048827,-0.00695108249170585,-0.00813948022644188,-0.000346189760393829,-0.00813144276826753,97
565,18.8007829356399,142.225941331408,1.01506683632708,120.667037364123,1,-0.0115057949762795,-0.00770465479001049,-0.00856891480711059,-0.00121310136204849,-0.00856440062492712,97
566,18.834117657157,142.079640399718,1.01402268627617,120.334955863878,1,-0.00950299481922343,-0.00761673079267812,-0.00859690302352511,-0.00188676950869588,-0.00859756813670769,97
567,18.8674523786741,142.036304569289,1.0137133983651,119.609955243407,1,-0.00945850119118671,-0.00646957920956964,-0.00806483916375957,-0.00227085628738582,-0.00805804831623513,97
568,18.9007871001912,142.128649175791,1.01437246201198,119.098482837933,1,-0.0109905448063226,-0.0040213331016408,-0.00640119502412478,-0.00231205610627417,-0.0063787565988863,97
569,18.9341218217082,141.819023739538,1.01216266463548,118.562954030518,1,-0.0101291397954337,-0.000225742954709799,-0.00308291407817182,-0.00200719254548529,-0.00306258308101144,97
570,18.9674565432253,140.738629131664,1.00445188609302,117.926154898566,1,0.00155327106740058,0.00444397365348634,0.00159658610782083,-0.00140228888233318,0.00159584436740603,97
571,19.0007912647424,140.408209197773,1.00209367834404,117.216239983801,1,0.00687804055818123,0.00902553112356335,0.00648436220660911,-0.000588035530125466,0.00647755886385629,97
572,19.0341259862595,140.015122968087,0.999288221112848,117.205697234352,1,0.00625386063465619,0.0125065837041418,0.0103618703867112,0.000316982287911723,0.0103726292242804,97
573,19.0674607077766,139.880117342758,0.998324685686711,116.925552250714,1,0.00816759416133375,0.0141735878331884,0.0124708846917911,0.00118240451141551,0.0124943987351058,97
574,19.1007954292937,139.585319401988,0.996220712176026,116.841308649077,1,0.00856751926178281,0.0136522013299926,0.0123463135614874,0.00188328915984064,0.0123610715395428,97
575,19.1341301508108,139.201827279069,0.993483728104599,116.794844354732,1,0.00969505701677045,0.0109258761710033,0.00971474974455869,0.0023195868445736,0.00971251041168567,97
576,19.1674648723279,139.722680095755,0.997201055730459,116.980522950909,1,0.00473202811727924,0.00649293581624585,0.00491129010744818,0.00242820698525541,0.00490793236647979,97
577,19.200799593845,141.451816894573,1.00954190862637,117.80540999878,1,-0.00506300202608623,0.00142197579945334,-0.000748042131164474,0.00219266130803042,-0.000736453694105539,97
578,19.2341343153621,142.024876405071,1.01363183553354,118.187845082709,1,-0.0105054598825643,-0.00299108768835612,-0.00541608179516673,0.00164495786687357,-0.00539735850090499,97
579,19.2674690368792,140.863662694653,1.00534425088969,119.028011284573,1,-0.0108369637744701,-0.00582561032565032,-0.00778829460706268,0.000859814570342298,-0.00777835094165427,97
580,19.3008037583963,140.50463206519,1.00278184854747,119.062300150523,1,-0.0104101694449744,-0.00690985325184095,-0.0077758594883876,-5.54540678599048e-05,-0.00777741101165892,97
581,19.3341384799134,139.943074226169,0.998774009093328,119.484386314633,1,-0.00867737855845463,-0.00673600190327416,-0.00629356585017729,-0.000975067615047609,-0.00629831274377771,97
582,19.3674732014304,138.656268557552,0.989590074385051,119.878624222168,1,-0.00739071011406434,-0.0060947798895607,-0.00457338435276526,-0.0017726849974835,-0.00457195360891686,97
583,19.4008079229475,138.570626320678,0.988978845564022,120.098038652889,1,-0.00820347494870743,-0.005692228692613,-0.00356791853669993,-0.00233827149442574,-0.00355966548474167,97
584,19.4341426444646,139.128061070944,0.992957258525223,119.75681686697,1,-0.00731849987129907,-0.00591113420494912,-0.00370933405688032,-0.00259231393736371,-0.00370351198710968,97
585,19.4674773659817,138.694329607661,0.989861716178105,119.260401753849,1,-0.00681262695841833,-0.0067250845092833,-0.00490610480675314,-0.00249740349433237,-0.00490768713575833,97
586,19.5008120874988,139.269182692714,0.993964443830563,119.228417300471,1,-0.00922456285850293,-0.00770393555608968,-0.00655422107633638,-0.00206294885693905,-0.00655917590852924,97
587,19.5341468090159,139.713608131932,0.997136309105964,119.362180613081,1,-0.0117859258626165,-0.00816430877777963,-0.00768439136829391,-0.0013438089156133,-0.00769345900474257,97
588,19.567481530533,139.678094185302,0.996882845995689,118.027547330796,1,-0.00735291005578664,-0.00748480272063599,-0.0073759528507946,-0.000433047324100071,-0.00738866711524109,97
589,19.6008162520501,140.551631521767,1.0031172837659,117.512739649555,1,-0.00668680805754951,-0.00537728530169905,-0.00511638975375259,0.000548183794147994,-0.00511959257328824,97.0135917289134
590,19.6341509735672,140.652865269784,1.00383978923408,117.531188503511,1,-0.00512690728707199,-0.00199229354099742,-0.000957511958622458,0.00146934177555624,-0.000945803811225418,97.0800617618488
591,19.6674856950843,141.707933411251,1.0113698127336,116.871810037672,1,-0.00272280359148991,0.00201548153981332,0.00423510427364528,0.00220575413882859,0.00423527118771368,97.1465317947842
592,19.7008204166014,133.527819887695,0.952988325661535,116.885839109873,1,0.0148675010773293,0.00557024069778766,0.00876162385694489,0.0026579350732475,0.0087372172085711,97.2130018277196
593,19.7341551381185,134.611012172669,0.960719071231227,116.694385644184,1,0.00846267507197807,0.00769875721576495,0.0110378691290874,0.00275824492063815,0.0110145717311458,97.279471860655
594,19.7674898596355,134.348978091423,0.958848933453471,116.922855126525,1,0.00887182398936515,0.00814454149254282,0.0108017044911928,0.00249106611605931,0.0107991185984622,97.3459418935903
595,19.8008245811526,134.896924282971,0.962759626551552,116.849770030307,1,0.00571335741065448,0.00741496982224628,0.00914127559057885,0.00188513594515005,0.00915290154939051,97.4124119265257
596,19.8341593026697,135.984874840286,0.970524331920738,116.99994594224,1,0.00289961046328335,0.00632386601439836,0.00748836700832039,0.0010160762997222,0.00749856569305628,97.4788819594611
597,19.8674940241868,135.342162246277,0.965937290813041,117.057683177508,1,0.00456105784096295,0.00549949243981266,0.00665498678628799,-4.52566045906746e-06,0.00664617796099218,97.5453519923964
598,19.9008287457039,134.984428695949,0.963384145727272,117.192656581688,1,0.00664842213176164,0.00515339559349006,0.00657199794276889,-0.00104393639895358,0.00654565464171984,97.6118220253318
599,19.934163467221,138.312304967109,0.987135205531353,118.051962368092,1,0.00540201083412439,0.00518868965480534,0.00679416097351068,-0.00196487425140704,0.00677053283123343,97.6782920582672
600,19.9674981887381,138.044205936758,0.985221782199345,118.59318667311,1,0.00293498524985025,0.00541721954467299,0.00710596202948226,-0.00264315178708633,0.00710082718047715,97.7447620912026
601,20.0008329102552,138.477707064443,0.988315680640825,118.542118906734,1,0.0052310593097542,0.00563191795954639,0.00756988783756371,-0.00298391268952744,0.00759017951594002,97.811232124138
602,20.0341676317723,140.151693595656,1.0002629259632,118.607069819276,1,-0.00142549297464678,0.00556685242345839,0.00811860410685856,-0.00293661999352021,0.00815445765738849,97.8777021570733
603,20.0675023532894,139.532481776434,0.995843609933577,118.361119848093,1,0.00207787673066262,0.00484434897832908,0.00809280206878158,-0.00249725261118761,0.00811022626106786,97.9441721900087
604,20.1008370748065,138.325079502253,0.987226377414994,118.550805791163,1,0.0053776678517089,0.00306749828588864,0.00630227186920526,-0.00171506679821787,0.00628074449814974,98.0106422229441
605,20.1341717963236,136.956224464601,0.977456856190859,119.436326426626,1,0.00236281039642328,0.000236056849515676,0.00209937422141772,-0.00068409829753591,0.00206470171646902,98.0771122558795
606,20.1675065178406,137.877139468358,0.984029428470144,121.116333505898,1,-0.00699432204464812,-0.00283911571451109,-0.00335907489378526,0.00046739739401499,-0.0033633487091604,98.1435822888149
607,20.2008412393577,137.992754759314,0.984854575039916,122.572791823197,1,-0.0147078978406192,-0.00474738890890748,-0.00727848139873973,0.00159284601259267,-0.00723140166709368,98.2100523217502
608,20.2341759608748,138.871712057788,0.991127695090141,121.854386192119,1,-0.0192174015960233,-0.00437685991203458,-0.00714670961696727,0.00254473764993484,-0.00707208771669814,98.2765223546856
609,20.2675106823919,139.54061513551,0.995901657734065,121.929362568405,1,-0.0166431530158617,-0.00189873440666918,-0.0030402253823689,0.00319465722579996,-0.00300565055085922,98.342992387621
610,20.300845403909,139.261020920764,0.993906193247338,117.667452837018,1,0.00847629151594032,0.00103029934255114,0.00180813789153768,0.00345201370158943,0.00177168864113678,98.4094624205564
611,20.3341801254261,139.007288746966,0.992095306200151,117.693897406941,1,0.00908136770156195,0.00240902682311179,0.00350511562754023,0.00326917777459185,0.00347082599225686,98.4759324534917
612,20.3675148469432,138.680401306252,0.989762309862247,121.977404009514,1,-0.0136341781889561,0.00148884360900587,0.00097342906183355,0.0026568079829902,0.00100773587336355,98.5424024864271
613,20.4008495684603,138.708891980387,0.989965647862255,121.993606733056,1,-0.0143891742756779,-0.000957298408693849,-0.00364041905096283,0.0016834916658413,-0.00357367694297707,98.6088725193625
614,20.4341842899774,139.015958435245,0.992157181783257,122.542712388255,1,-0.0138870897220708,-0.00372980299486925,-0.00763984038201113,0.000460136879684177,-0.00759524803142291,98.6753425522979
615,20.4675190114945,138.937053351835,0.991594036040383,122.67606496566,1,-0.0147874884742208,-0.00608234490656954,-0.00984611059509541,-0.000865190903122078,-0.00982861807928101,98.7418125852333
616,20.5008537330116,138.834536242979,0.990862371223252,122.728302538964,1,-0.0152321380096495,-0.0077744753374318,-0.0105662939903305,-0.00212765533294307,-0.0105570183569164,98.8082826181686
617,20.5341884545287,138.806136733093,0.990659683862681,122.305954729032,1,-0.0164853079906333,-0.00880154704161377,-0.0106728146022402,-0.00316683173701182,-0.0106577314420373,98.874752651104
618,20.5675231760458,138.799190676165,0.990610109840075,122.58863116142,1,-0.0169172878769525,-0.00917164841760199,-0.0108243757292964,-0.00384628596363778,-0.0108045841357172,98.9412226840394
619,20.6008578975628,138.904308620176,0.991360336823069,122.169884839757,1,-0.015363502775005,-0.00879546884654459,-0.0110746667355116,-0.00407127293787432,-0.0110546183380671,99
620,20.6341926190799,138.844154805845,0.990931018926245,122.142036829081,1,-0.0152871333072359,-0.00747428080047556,-0.0108221196731206,-0.00380165959990501,-0.010796038660048,99
621,20.667527340597,138.798300093294,0.990603753748289,122.017509929919,1,-0.0148498666954824,-0.00500625923190137,-0.0091181587788513,-0.00305703902052565,-0.00907814678156971,99
622,20.7008620621141,138.832546409967,0.990848169780947,122.037943252771,1,-0.0161424523949502,-0.00147485849194168,-0.00544979196240248,-0.00191632045129313,-0.00541293425971116,99
623,20.7341967836312,139.738148485478,0.997311453659783,118.724138862354,1,-0.00183380195843189,0.00244024459209798,-0.000588069399554064,-0.000506139220057767,-0.000580660146674753,99
624,20.7675315051483,138.876298129481,0.99116042589326,118.055185341514,1,0.0052193263588852,0.00560496093216125,0.00360061255574325,0.00100855246286404,0.00359071356071549,99
625,20.8008662266654,139.282423082273,0.994058940518124,118.562751603439,1,0.0020972968156969,0.00710430443237131,0.00555420062064531,0.00244878380024549,0.00555919694110507,99
626,20.8342009481825,139.352676196825,0.994560337141438,118.645624374545,1,0.00148787505121159,0.00675728621344865,0.00507344220349019,0.00364199451938359,0.00509660891114369,99
627,20.8675356696996,139.470541941052,0.995401545200838,118.967541164086,1,-0.000696453856776441,0.00501871198860039,0.00303430658425673,0.00444028026558609,0.00305652524834614,99
628,20.9008703912167,139.08502575493,0.99265011538616,118.946012250832,1,0.000286926978175422,0.00259677333178046,0.000537916756558123,0.00474095389426217,0.000547195970494899,99
629,20.9342051127338,139.631946509062,0.996553489935284,119.35429349014,1,-0.00246178189015914,0.000181458421443123,-0.00156517396245829,0.00449695610814997,-0.00156493252894897,99
630,20.9675398342509,139.862808152705,0.998201149961638,118.942511406411,1,-0.00308840173222427,-0.00168840857872381,-0.00274462805905889,0.00372513405307885,-0.0027445446404365,99
631,21.000874555768,140.482819163861,1.00262616982574,119.411795728719,1,-0.00542260203370518,-0.00273681925213337,-0.00282505140324,0.00250276663864784,-0.00282722349414609,99
632,21.034209277285,139.622082053212,0.996483087293559,119.200109356324,1,-0.000437393932319813,-0.00303220359361797,-0.00206087019416375,0.000961767466963851,-0.00207040407801351,99
633,21.0675439988021,139.970240206127,0.998967892748262,119.271860668176,1,-0.00066476782618155,-0.00290295847538704,-0.000981426418443735,-0.000729103111762844,-0.000993384084758692,99
634,21.1008787203192,139.968120492222,0.998952764345758,119.479904473521,1,-0.00090803572645029,-0.00271100362825557,-3.59961905015439e-05,-0.00237960490734384,-4.52827445814891e-05,99
635,21.1342134418363,139.958583139412,0.998884696239103,119.149741001725,1,0.000323305270827329,-0.00269743556571298,0.000549406384746308,-0.00380146363297661,0.00053770422722741,99
636,21.1675481633534,139.36360103739,0.994638307751053,119.049296591938,1,0.00172769407984527,-0.00294646390905894,0.000678025316915204,-0.00482933430318591,0.000660368137438128,99
637,21.2008828848705,138.917152210773,0.991452001555622,119.542887815352,1,0.00324926900799946,-0.00333731433082597,0.000407029514831399,-0.00533940642398509,0.000389808628720852,99
638,21.2342176063876,139.242830317804,0.993776366876532,119.892033127294,1,0.00366010532869251,-0.00347313903177978,0.000138149932883288,-0.00526422270158871,0.000133978009058236,99
639,21.2675523279047,137.238829710365,0.979473810412161,123.639099599137,1,-0.0119352562497439,-0.00283972143699905,0.000420938274666421,-0.00460297268411996,0.000394279963022354,99
640,21.3008870494218,137.597079389539,0.982030639110573,119.135673701,1,0.019993326806727,-0.00123074304311759,0.00130692505580085,-0.00341230563433389,0.00122635426828853,99
641,21.3342217709389,137.65432618477,0.982439209606085,119.326366744615,1,0.0180494923556677,0.0013192360251603,0.00280458480595764,-0.0018213105589255,0.00275426150947317,99
642,21.367556492456,139.16570677792,0.993225936013474,123.208376876436,1,-0.0171172543488564,0.00498172954340247,0.00594606797327102,3.56001263650061e-07,0.00596603149312495,99
643,21.4008912139731,136.989181652556,0.977692071709203,119.468174070523,1,0.0216293142579427,0.0095913340420654,0.0113831149282224,0.00186412492569811,0.0113822194412875,99
644,21.4342259354901,136.197647749261,0.972042892610497,119.531795299007,1,0.0252913849662722,0.0138472991798287,0.0172529916299794,0.00355584320853791,0.0171976000144884,99
645,21.4675606570072,136.456087476868,0.973887377478919,119.384451344368,1,0.0257575426533865,0.0159967513927277,0.0203507201687535,0.00489118984576096,0.0202829091987569,99
646,21.5008953785243,137.565532114966,0.981805486146947,119.152132541264,1,0.0247699327819647,0.0151145085173014,0.0188384222365671,0.0057181950972987,0.0187769289983128,99
647,21.5342301000414,137.514595854395,0.981441953950295,119.507951140141,1,0.020140691401147,0.0115809863773447,0.0133494567210319,0.00593832790218217,0.0133089223171813,99
648,21.5675648215585,139.53238065575,0.995842888235046,120.793379163244,1,0.00577051758874242,0.00681288838148386,0.00646608111237771,0.0055173168965668,0.00644973114456177,99
649,21.6008995430756,141.062517030857,1.00676347469691,120.936087298736,1,0.00112590028764242,0.00247841942524142,0.0010972381293222,0.00449226026474452,0.00107934351826606,99
650,21.6342342645927,139.361470915594,0.994623105067409,120.633658279872,1,0.00346571351794617,-0.000423738274158596,-0.00135890097756705,0.00296448217933019,-0.00140077979572828,99
651,21.6675689861098,138.655973643132,0.989587969580232,120.820402453906,1,0.0035280047047716,-0.00190350636218669,-0.00152844652184255,0.00109082559886489,-0.00158316423510783,99
652,21.7009037076269,138.363622737371,0.987501460563447,121.668669956911,1,0.00108116969792699,-0.00260511634856505,-0.00106243410848603,-0.000931856096890692,-0.0011112025803393,99
653,21.734238429144,139.346923241245,0.994519278285608,121.265689648822,1,0.00147425260372519,-0.00324826706684729,-0.00138531384783713,-0.002887636408183,-0.0014223361805539,99
654,21.7675731506611,140.587161395765,1.00337086054982,120.916917421665,1,-0.00196471631271938,-0.00425089358899489,-0.00302143173465831,-0.00456573540350384,-0.00304703070186478,99
655,21.8009078721782,139.819845997798,0.99789452897354,121.267693161775,1,-0.00589109547523675,-0.0055909696768128,-0.00553678522667648,-0.00578100477466538,-0.00555515794651041,99
656,21.8342425936953,141.08353457914,1.00691347698231,121.118565571016,1,-0.0090291032219349,-0.00692920756622733,-0.00799998829076074,-0.00639519443720184,-0.00802077471217532,99
657,21.8675773152123,141.732588059092,1.01154577300604,121.003539870872,1,-0.00869049433178853,-0.00788250210597303,-0.00962979303977654,-0.00633184631684632,-0.00965645581642706,99
658,21.9009120367294,141.274248280583,1.00827460106245,121.126061336547,1,-0.0103180936313356,-0.00821621900861491,-0.0101283497501837,-0.0055864954581651,-0.0101538666813016,99
659,21.9342467582465,142.04484235756,1.01377433257759,120.731872017208,1,-0.0112895384551802,-0.00788960289621016,-0.00963180477077856,-0.00422716318390647,-0.00965192063954869,99
660,21.9675814797636,142.031819354022,1.0136813873745,120.673006895066,1,-0.00955549961281305,-0.00704439878584092,-0.00855999256128529,-0.00238929816424719,-0.00857816822933953,99
