frame_index,time_s,G_skin_raw,G_normalized,frame_luminance,face_detected,skin_pixel_count,BVP_detrended,BVP_butterworth,BVP_cheby1,BVP_cheby2,BVP_elliptic,gt_bpm
1,0,120.964618010661,0.999327660208304,125.777830692412,1,92392,-0.00951240656857344,0.000241274909908888,-0.000601674234956055,-8.10412776375087e-05,-0.000456826678500646,NaN
2,0.0333333333333333,120.919256771509,0.99895291640527,126.055566202462,1,93924,-0.00124031516347189,0.00304597129993189,0.00184832317350591,0.00143751297905959,0.00183788604636403,NaN
3,0.0666666666666667,120.87750036899,0.998607953318422,125.422955210662,1,92589,-0.00298100773845977,0.00512545765898635,0.00364954689002282,0.00279998131178451,0.00354908399313871,NaN
4,0.1,120.780899301408,0.997809900793414,124.820458811561,1,93052,0.00246260706638601,0.00606235484798634,0.004434517752131,0.00387658030896573,0.00435295930730867,NaN
5,0.133333333333333,120.857879982635,0.998445862988943,125.083037449879,1,92942,-0.00395852186593659,0.0058583254687226,0.00419448464082749,0.00457507133230693,0.00420168823965912,NaN
6,0.166666666666667,120.963393925342,0.999317547645323,125.951071297038,1,92318,-0.013103693975419,0.00484832605839619,0.00322037767559829,0.00485027011219514,0.00330031305720227,NaN
7,0.2,120.716961495024,0.997281689986791,125.165731703363,1,92517,-0.000219470893670692,0.00347758084889216,0.00192556313450574,0.00470235533767089,0.00199684775132957,NaN
8,0.233333333333333,120.9367261425,0.999097236504194,125.775367832228,1,93317,-0.00943355714855709,0.00209118506246426,0.000658163611724566,0.00416218766543041,0.000635630270460755,NaN
9,0.266666666666667,120.671844312491,0.99690896241407,124.813605294564,1,92170,0.00104603773779077,0.000850178493605635,-0.000401744919597492,0.00329520940505849,-0.00053809216259946,NaN
10,0.3,121.000242865509,0.999621968605468,127.03408507459,1,94137,-0.00707154321192505,-0.000218339850002192,-0.00123144372876831,0.00217825647572148,-0.00143007055126185,NaN
11,0.333333333333333,120.822696673184,0.998155202340482,125.636581478193,1,93479,-0.0045430999903,-0.00111993022914445,-0.00188422398142028,0.000908781600760083,-0.00205685483017623,NaN
12,0.366666666666667,121.204370738717,1.00130833469558,128.569783133379,1,94605,-0.0104611275243949,-0.00183599452611365,-0.00241027543865175,-0.000409450326219051,-0.00249814951471932,NaN
13,0.4,121.19128684697,1.00120024445282,128.3393449683,1,94428,-0.0122073209619753,-0.00234636287268876,-0.00282912478867661,-0.00166079166361716,-0.00283531583852988,NaN
14,0.433333333333333,121.012076588365,0.99971973080046,126.658270468397,1,93852,-0.0090129856822454,-0.00268854330116304,-0.00315106231203717,-0.00272644189308528,-0.00312839748570697,NaN
15,0.466666666666667,121.046852552935,1.00000702624169,128.629187072898,1,93313,-0.00948450634332998,-0.00297821902385759,-0.00340588175298118,-0.00349281819595957,-0.00341075845587944,NaN
16,0.5,120.892784693811,0.998734222047351,125.927360300042,1,93498,-0.00618386848231856,-0.00335018896103534,-0.00363758131721264,-0.00386443709600175,-0.00368868623332408,NaN
17,0.533333333333333,121.006484718856,0.999673534565858,126.528780756947,1,94247,-0.00871470788590711,-0.00384949451294816,-0.00385864037193223,-0.00378546565396338,-0.0039347437827252,NaN
18,0.566666666666667,121.125858461387,1.00065971949146,127.49942995128,1,94144,-0.0111212072163074,-0.00435161427782469,-0.00399756084506571,-0.00325547262189429,-0.00406917729711964,NaN
19,0.6,120.955815138576,0.999254936847467,126.159769979715,1,93499,-0.00965531676682518,-0.00458067147992067,-0.00388765657638604,-0.00234315470212379,-0.0039550810726633,NaN
20,0.633333333333333,121.201267158327,1.00128269501862,127.788396375726,1,94143,-0.0155352427587245,-0.00423332561971303,-0.00332302696770419,-0.00118857436887515,-0.00342652448841799,NaN
21,0.666666666666667,121.04974796862,1.000030946203,127.027095101069,1,93830,-0.0126034958031163,-0.00314616561263216,-0.0021644490188848,1.49310693006895e-05,-0.0023518396859791,NaN
22,0.7,120.94681079483,0.99918054906437,126.112144796897,1,93409,-0.00847249045725684,-0.00141246256222141,-0.000442430667074285,0.00104788128272915,-0.000721424255432219,NaN
23,0.733333333333333,121.006922915189,0.999677154646862,127.052674002819,1,93873,-0.00651415127043098,0.000619099953772666,0.00160027550912469,0.00170999248562051,0.00129122745724481,NaN
24,0.766666666666667,120.942430432444,0.999144361480213,126.319560109901,1,93781,-0.00705076732495202,0.00246420681448755,0.00355634724462772,0.0018648082365708,0.00332743260160866,NaN
25,0.8,120.896196992017,0.998762412141592,125.478746009204,1,93653,-0.00855584446764723,0.00368008871422569,0.0049781116095896,0.00147770820709388,0.00492573258521535,NaN
26,0.833333333333333,120.975753894123,0.999419657327359,126.517942264831,1,93773,-0.00846395977162828,0.00401906694207982,0.00553029485364183,0.000635460180672811,0.00567003348425628,NaN
27,0.866666666666667,120.82947235351,0.998211178417435,125.3886765853,1,93158,-0.00628768805642421,0.00350041872962621,0.00511293199296388,-0.000460287724095162,0.00535478941180427,NaN
28,0.9,120.940476875134,0.999128222514226,126.050488634177,1,93526,-0.0117639469550754,0.00238503054194131,0.00391016175267822,-0.0015292350144094,0.00409842485785081,NaN
29,0.933333333333333,121.030521616953,0.99987211112096,125.671376528475,1,93421,-0.0218285527393025,0.00107808585568306,0.002349374288672,-0.00227060619222006,0.00234890320203221,NaN
30,0.966666666666667,120.95409265006,0.999240706815196,125.760597446639,1,93576,-0.0152726149034952,1.07679864926801e-05,0.000985265367838538,-0.0024315541951857,0.000765401088803722,NaN
31,1,120.981002528086,0.999463017982595,125.753357870935,1,93462,-0.016591309706758,-0.000451315855030771,0.000343508986480224,-0.00187763925155674,-3.34993082980413e-07,NaN
32,1.03333333333333,120.872354286519,0.998565439874083,125.214687323177,1,93078,-0.0141548965759712,-6.06734114116231e-05,0.000764998901007777,-0.000631117587624602,0.000467821083811768,103
33,1.06666666666667,121.145097771665,1.00081866162876,126.586198827921,1,94021,-0.0232895526683383,0.00127220427170253,0.00228886863081965,0.00111097521758213,0.00217810084512503,103
34,1.1,121.052491060647,1.00005360776952,126.173900401401,1,94004,-0.0183766174995359,0.00342523788364044,0.00460741266674551,0.00301362580865055,0.0047095338294257,103
35,1.13333333333333,121.059135908811,1.00010850299986,126.005987619423,1,93749,-0.020901058359061,0.00601429654140375,0.00711700311062511,0.00466174627792763,0.00732851595354177,103
36,1.16666666666667,120.925004823847,0.999000402916518,125.110199342529,1,93591,-0.0178921309607825,0.00840496568982177,0.00906768228174331,0.00565660307421525,0.0092284837858127,103
37,1.2,121.033375137356,0.999895684971846,125.86992761337,1,93940,-0.0177586228087021,0.00983916073868704,0.00977839073204542,0.00570339870581721,0.00977716032696943,103
38,1.23333333333333,121.105624485321,1.00049256009981,126.347204359364,1,94081,-0.0167756376604253,0.00966841335047652,0.00884889791978985,0.00469063999164039,0.0086970277633694,103
39,1.26666666666667,121.044140992864,0.999984625170828,125.974171881076,1,94290,-0.017436648560782,0.00760848599342586,0.00628739530708363,0.00272710610717945,0.00610563676149499,103
40,1.3,121.056551260533,1.00008715038817,125.881436816933,1,94366,-0.0166147539195052,0.00389037552334536,0.00250065722686088,0.00013516463677474,0.00243557801514636,103
41,1.33333333333333,122.043433946793,1.00824010603734,133.724055011231,1,96756,-0.0456060531653701,-0.000781266459901593,-0.001845055074548,-0.002614524485933,-0.00172608545052067,103
42,1.36666666666667,122.010288163505,1.0079662780486,133.840402316198,1,96077,-0.0418649874425085,-0.0054482322370678,-0.00602135523808672,-0.00498773598915711,-0.00577028886324417,103
43,1.4,121.961473014355,1.0075630003829,133.816364952429,1,95786,-0.0394171260954157,-0.0091809664906195,-0.00939907092735126,-0.00651360580302073,-0.00915479141505402,103
44,1.43333333333333,121.970343463243,1.00763628201747,133.640197425965,1,96036,-0.0423243493195815,-0.0112888827807803,-0.0115165668762272,-0.00687849335807333,-0.0114097234806147,103
45,1.46666666666667,121.92772885282,1.00728422899879,133.439008235804,1,96125,-0.0406709530973002,-0.0114070228595476,-0.0120735966761392,-0.00600159364938584,-0.0121461294656211,103
46,1.5,121.942154216149,1.00740340157024,133.333616580311,1,96500,-0.0413776644999415,-0.00950909250459099,-0.0109262430127124,-0.00405654237773795,-0.0111104916895506,103
47,1.53333333333333,121.883205645035,1.00691640844272,133.150696269822,1,96251,-0.0373770458433422,-0.00592389130051134,-0.00814875277998542,-0.0014329755810704,-0.00830986839818326,103
48,1.56666666666667,122.00310709266,1.00790695291003,133.513430001726,1,96550,-0.044040666237696,-0.00136715722721361,-0.00415280198445743,0.00134165940833943,-0.00416664111520714,103
49,1.6,121.97185454678,1.00764876556514,133.391977594032,1,97236,-0.0434758129463693,0.00308953780915768,0.000232168379035584,0.00371790461988744,0.000416595737971994,103
50,1.63333333333333,120.997727722032,0.999601190195329,125.799001862353,1,95578,-0.0158499269949584,0.00621416686053276,0.00384207464285435,0.0052416476085669,0.00418279601544126,103
51,1.66666666666667,121.043664636688,0.999980689839066,126.572407776237,1,95899,-0.018615109221932,0.00698486263477006,0.00548245145130906,0.00564209935814669,0.00586200300978402,103
52,1.7,120.937079680056,0.99910015719178,125.521451902833,1,95314,-0.0242489702615951,0.0049987608540711,0.0043791390127631,0.0048937904707401,0.00466088017108252,103
53,1.73333333333333,121.814204399312,1.00634636693328,133.243952765779,1,96766,-0.0407130255924226,0.000705412327598231,0.00058393653242468,0.00320157262413892,0.000668957665718558,103
54,1.76666666666667,121.775205987642,1.00602418849692,133.036079587426,1,97017,-0.036381842319376,-0.00467626164013781,-0.00487980875619261,0.000956277589566393,-0.00499638283146374,103
55,1.8,121.663044166709,1.00509758357788,132.436555205616,1,96207,-0.035733143484467,-0.0095352641743407,-0.0102553755571702,-0.00136543177113837,-0.0104728598623674,103
56,1.83333333333333,121.621020465252,1.00475041224844,132.167283040037,1,96262,-0.0358496496274614,-0.0123894853227514,-0.0136337477708681,-0.00330046678631258,-0.0137811781247536,103
57,1.86666666666667,121.63538277388,1.00486906390471,131.847895225284,1,95901,-0.0401573839484195,-0.0123666431101193,-0.013673460455741,-0.00449948078611805,-0.0135951181099985,103
58,1.9,121.530880500512,1.00400573697449,131.156071647007,1,95375,-0.0363588707648774,-0.00949328345479884,-0.0101657339676554,-0.00478733114318991,-0.0098083987712811,103
59,1.93333333333333,121.312102285568,1.00219833969387,129.242629761691,1,94513,-0.033298204279641,-0.00469450370812734,-0.00418318924695618,-0.0041869563202294,-0.00364008093987882,103
60,1.96666666666667,120.87891223379,0.998619617188157,126.190637538051,1,92967,-0.0189383924398205,0.000516736369565332,0.00229393910081055,-0.00289099383699928,0.00282331077623829,103
61,2,120.809727334458,0.998048058457114,126.0248572121,1,92153,-0.0126633501492623,0.00457552617577283,0.0071544976078851,-0.00120729131244395,0.00746652365688839,103
62,2.03333333333333,120.622835129368,0.996504081771242,126.101650964761,1,88312,-0.00986557637686492,0.00643543686556143,0.00901967896879231,0.000523060798071394,0.00902230926307876,103
63,2.06666666666667,120.692242481391,0.997077478255598,125.936072186359,1,88918,-0.00974340345885061,0.00594290916071902,0.00781025804839327,0.00199865352512613,0.0075783856687172,103
64,2.1,120.394464624348,0.99461743949357,121.492432745707,1,90874,-0.0175417639451414,0.0038535322346869,0.00474762733617091,0.00301327394072982,0.00448105387021547,103
65,2.13333333333333,120.611120926983,0.996407306973353,123.259779463574,1,93197,-0.00517928150600255,0.0014804818116094,0.00176996896051759,0.00348683749931274,0.00167778241100704,103
66,2.16666666666667,120.873479286526,0.998574733861393,124.722533419784,1,94081,-0.0146689462789618,0.000123688199388368,0.000620621629979877,0.00344953233996891,0.000784875227885181,103
67,2.2,120.977621747834,0.999435088268317,125.427213647156,1,95043,-0.0117754308660296,0.000518459062514247,0.00203109746690532,0.00302160371965964,0.00234846272478767,103
68,2.23333333333333,120.848565912265,0.998368916454472,125.058135607532,1,94744,-0.00553647070366337,0.00253386205111708,0.0053895432250787,0.00235826961943174,0.00562027777144371,103
69,2.26666666666667,121.016725705628,0.999758138655199,128.857850173487,1,94051,-0.00805491855900575,0.00525265414289787,0.00906203126889502,0.00160888028849304,0.00897694369245626,103
70,2.3,120.603722829835,0.996346188910613,125.847689196996,1,92320,0.00635481683169292,0.00740748108875548,0.0112182628422615,0.000887593247293114,0.0107585321444975,103
71,2.33333333333333,120.961727667402,0.999303782151948,126.631984748101,1,94939,-0.00116726185720761,0.00798662968273829,0.0107569920674668,0.000250565841873272,0.0100928521222888,103
72,2.36666666666667,120.058789621747,0.991844320209129,126.136334850668,1,78427,0.0162286449259654,0.00672721807201761,0.00786314660339802,-0.000282625150180227,0.00732004079703575,103
73,2.4,120.488357282863,0.995393116979161,127.852346909563,1,82669,0.00542949258377279,0.004243101589675,0.00390314768514754,-0.000725486246847226,0.0037645295220156,103
74,2.43333333333333,120.909645717261,0.998873516391346,129.520232552753,1,86346,-0.0140513404322347,0.00170107982030151,0.000701840245836991,-0.00108838523726151,0.00102553935200444,103
75,2.46666666666667,121.091794489258,1.00037830604905,129.434998955223,1,94119,-0.00195569792174499,0.000199810149773096,-0.000424697385801438,-0.00136467126496399,0.000133262358952417,103
76,2.5,121.345890243562,1.00247747289464,131.623196690641,1,96212,-0.00571707635894469,0.000188072745976081,0.000637882614922147,-0.00153268092587248,0.00102919425799381,103
77,2.53333333333333,121.153578430555,1.00088872308264,129.40390563574,1,96237,0.000713732322013882,0.00125315702394541,0.00276653046844779,-0.00155459684441038,0.00265502893595185,103
78,2.56666666666667,120.963219640381,0.999316107821139,129.768582025637,1,94186,0.00948947294503055,0.00240017437068127,0.00425089155331933,-0.00140699354632535,0.00357264323968029,103
79,2.6,120.988763563115,0.999527134392035,129.40220903361,1,94189,0.00711148778104231,0.00265550381864239,0.0037746445795349,-0.00110004226201387,0.00279479941411002,103
80,2.63333333333333,121.07096326114,1.00020621256587,130.660922025461,1,94813,0.00418822722777046,0.00164014412299816,0.00117903636905069,-0.000692644187315414,0.000349632739772795,103
81,2.66666666666667,121.183093034149,1.00113255272668,131.22227812191,1,95409,-0.000408234982077982,-0.000219130743168395,-0.00242966030581213,-0.000295303045533375,-0.00273357909969384,103
82,2.7,121.276757900566,1.00190634834841,131.528759767665,1,95724,-0.00228267456250952,-0.00196048612306321,-0.00530466958679968,-4.82784665092398e-05,-0.00501148829277713,103
83,2.73333333333333,121.412494987365,1.00302771613004,131.824965942645,1,96406,-0.0051317877183803,-0.00268336622289981,-0.00607546773080174,-8.64721285580625e-05,-0.00546956429635179,103
84,2.76666666666667,121.405614550331,1.00297087462419,130.576997171783,1,97588,-0.00332525392000038,-0.00212827111467537,-0.00458179990629815,-0.000492037702453193,-0.00413694268682168,103
85,2.8,121.387946087045,1.00282490975971,131.398344801105,1,97229,-0.00513366804312643,-0.000897330117562982,-0.00203340364452193,-0.0012556109073756,-0.00212126231689532,103
86,2.83333333333333,121.321828747108,1.00227869312458,131.322073709906,1,97635,-0.000754271512239058,-0.000157198486732696,-0.000369648666701981,-0.0022503941941954,-0.00101373348362806,103
87,2.86666666666667,121.306946948396,1.00215574979346,131.569434952194,1,96570,-0.000514734875705969,-0.000947916484308695,-0.00114640368531729,-0.00324180644519078,-0.00198913196783709,103
88,2.9,121.000630972483,0.999625174882154,129.758221221779,1,95069,0.010573185431757,-0.00346626057266267,-0.00456639975346667,-0.0039199282702279,-0.00508117271445075,103
89,2.93333333333333,120.863844518225,0.998495137938046,128.120179821222,1,95873,0.0205716198985044,-0.00676390632815721,-0.00922219171554834,-0.00396560319251673,-0.00905036124786981,103
90,2.96666666666667,122.223325022598,1.00972624413981,136.567116123233,1,101975,-0.036119794612512,-0.00911893083195267,-0.0127443141814394,-0.00314020637010176,-0.01195468783764,103
91,3,121.866439939762,1.00677790155287,134.884418869652,1,99751,-0.0203711141755489,-0.00894956724825897,-0.0130366248483923,-0.00134024760468708,-0.0121000027931673,103
92,3.03333333333333,121.96695432448,1.00760828325083,135.580935722497,1,100621,-0.021007622895675,-0.00575815584819594,-0.00942642058985494,0.00131474689444376,-0.00894551018812785,103
93,3.06666666666667,120.750904801854,0.997562106574314,128.462876845614,1,90101,0.0131905380953303,-0.000510505186825952,-0.00308048224308303,0.00450301063350058,-0.00339088717293733,103
94,3.1,120.51891863057,0.995645594113381,128.482918675226,1,87542,0.0186990284397663,0.00481429110947423,0.00355517237024565,0.007708641995909,0.00260506627565322,103
95,3.13333333333333,121.058195114797,1.00010073079756,129.174668735252,1,97329,0.0131194618731834,0.00823926704874616,0.00797909347953124,0.0103232507574716,0.00695573398649045,103
96,3.16666666666667,121.047265389663,1.00001043681884,129.501750359464,1,97599,0.0119822712228133,0.00875771177156183,0.00883860759288642,0.0117552296047231,0.00837375187938898,103
97,3.2,121.082255515483,1.00029950151513,129.249412192129,1,97254,0.00492148601371056,0.00670220633641741,0.00646280473324614,0.0115583657220075,0.00685831609086137,103
98,3.23333333333333,121.091955755186,1.00037963831881,129.052870389309,1,97780,0.00462171745863671,0.00335436970163496,0.00247565351845418,0.00954579177938798,0.00351682902842506,103
99,3.26666666666667,121.363687457935,1.00262450141331,132.150896753955,1,97760,-0.0117270861087841,8.52270253638633e-05,-0.00123221527810572,0.0058486656481835,-0.000144306009087878,103
100,3.3,120.60203072022,0.996332209848221,129.432016208367,1,85388,-0.000587560956044175,-0.00243506581787954,-0.00354970966697085,0.000930783070866627,-0.00301607712719603,103
101,3.33333333333333,120.636654015282,0.99661824403749,129.511038241271,1,86608,-0.00260745951439434,-0.00448968038030324,-0.00461213377113407,-0.00448847231806559,-0.00486484516249637,103
102,3.36666666666667,120.518622833427,0.995643150437933,130.514568715809,1,83661,-0.00321836661454356,-0.00689746636098908,-0.00545846019176804,-0.00954724606855048,-0.00622189023453229,103
103,3.4,120.027966700967,0.991589682135535,128.407132078272,1,80846,0.0108819807115257,-0.0102052265032162,-0.00713365836736005,-0.0134054291446421,-0.00781693096242375,103
104,3.43333333333333,119.317186157955,0.985717695197109,125.490500910012,1,74358,0.013994028113312,-0.014021967230021,-0.00980907637468053,-0.0154060266643955,-0.00989194726345385,103
105,3.46666666666667,121.975549787243,1.00767929313648,135.480483310097,1,104005,-0.0368034083754862,-0.0169571209798521,-0.0124652529875504,-0.0152127152423207,-0.0118366091299326,103
106,3.5,121.667140565162,1.00513142524455,133.573357067225,1,101683,-0.0256954990941809,-0.0172494998244763,-0.0133330457676505,-0.0128656058214604,-0.0123421399089264,103
107,3.53333333333333,121.295514888848,1.00206130586839,132.019382951017,1,99830,-0.0115798106420004,-0.013721911593692,-0.0108380755637589,-0.00879736599370845,-0.0100573604746407,103
108,3.56666666666667,120.446672639521,0.995048746717981,131.335090036063,1,82541,0.00802609377701868,-0.00648663577815942,-0.00451308623239535,-0.00372789102112391,-0.00434981358755169,103
109,3.6,120.323778421372,0.994033478009697,125.782909683227,1,93316,0.0269431134851792,0.00299038831248759,0.00461357050088089,0.00147073615426775,0.00417470723019066,103
110,3.63333333333333,120.723099156466,0.997332395184295,129.826264927609,1,95684,0.0183768606476415,0.0124463242101758,0.0143343427450804,0.00594856703932115,0.013702841898425,103
111,3.66666666666667,120.613462136977,0.996426648462988,129.57617793386,1,96815,0.0288641291224248,0.0196522652778581,0.0220943921854956,0.00905192975908481,0.0217940586951354,103
112,3.7,120.576449570944,0.996120875736876,129.190772308676,1,96969,0.029993208401748,0.0231161195837293,0.025927095199124,0.0104316659152219,0.0262451360879592,103
113,3.73333333333333,120.615969078683,0.996447359115661,128.986490491227,1,97857,0.0337189447939568,0.0224219962959121,0.025093659778086,0.0101020306003559,0.025904585981561,103
114,3.76666666666667,120.143368375485,0.992543052528273,131.5745644422,1,85159,0.0243181985463119,0.0181904632254411,0.020220873584494,0.00840003128151331,0.02107413260638,103
115,3.8,120.406608566255,0.994717764508031,130.456470072711,1,89762,0.0177033855321493,0.0117872857936785,0.0129728538609717,0.00588891384072055,0.0133864669323402,103
116,3.83333333333333,120.329069054515,0.994077185633686,129.139547545704,1,91221,0.0274522055173949,0.0049365347763315,0.00545820981463204,0.00321217052346246,0.00522142739655665,103
117,3.86666666666667,120.402471689875,0.994683588440174,130.212475830369,1,89127,0.0144559932298485,-0.000662987927074926,-0.000391427965522351,0.000936167809820496,-0.00109696558678264,103
118,3.9,120.533111454957,0.995762845605751,130.946417507893,1,89849,0.00904991874779348,-0.003692213877745,-0.00330337153845043,-0.000564779335674622,-0.00402122564171015,103
119,3.93333333333333,120.484023736661,0.995357316158577,129.923840186565,1,89763,0.0121854677426048,-0.00353013068650212,-0.00293318196708323,-0.00118016456761819,-0.00321312640783048,103
120,3.96666666666667,120.525104364863,0.995696696456187,130.48979197981,1,89815,0.00653038608224943,-0.000479180461642889,9.10210023036252e-05,-0.00105500354700062,0.000431307616341157,103
121,4,120.411745573144,0.994760202976064,131.083701466522,1,88736,0.0128830527874895,0.00421631866324547,0.00434373971795434,-0.00051548478038089,0.00512839730098903,103
122,4.03333333333333,120.50838794726,0.995558596747655,128.604142442355,1,98042,0.0310816231534758,0.00865772726272288,0.00798162272259032,4.28291563893988e-05,0.00880016327121214,103
123,4.06666666666667,120.593773569508,0.996263994867373,128.904531975398,1,98581,0.0233405794549935,0.010872220958181,0.00927394238795539,0.000276381602119961,0.00972941247695979,103
124,4.1,120.588469583929,0.99622017693461,128.663069739113,1,98510,0.0202481374295447,0.00951742289519134,0.00716246040628402,-1.80618024363968e-06,0.00709362578197233,103
125,4.13333333333333,120.360259411514,0.994334859216204,126.437001480632,1,97706,0.026166627762664,0.00444041044031818,0.0016706114095581,-0.000780762595739635,0.00121393919807801,103
126,4.16666666666667,120.145588181075,0.992561391057034,125.74867290912,1,87786,0.0206475314549239,-0.00316388883575936,-0.00601460963811174,-0.00186418512309499,-0.0065400046428064,103
127,4.2,120.331035740253,0.994093433057845,125.776506116375,1,91394,0.0112249817631267,-0.0111137476104313,-0.0138722642487267,-0.00293770797194132,-0.014168593392535,103
128,4.23333333333333,121.950024613382,1.00746842145606,134.333756806381,1,105477,-0.0345818537481235,-0.0170231875823718,-0.0197130640396567,-0.00368486073864817,-0.0196837513240049,103
129,4.26666666666667,120.137813779899,0.992497164225549,126.643635246216,1,86780,0.0174338786334776,-0.0191967280827,-0.0219478861771403,-0.00386525619620325,-0.0217144680322554,103
130,4.3,120.93681961942,0.99909800874713,128.995008978082,1,92633,-0.00777842549314567,-0.0172485850964781,-0.0201576759964105,-0.00343080493712303,-0.0199758720912475,103
131,4.33333333333333,120.409609114585,0.99474255300397,124.28557865136,1,91984,0.0125872119802435,-0.012188307451545,-0.0152327535715492,-0.00249740509443319,-0.015305653414896,103
132,4.36666666666667,120.572970699407,0.996092135658904,124.730153027982,1,94645,0.0115266630850868,-0.00597663356104324,-0.0090283006049663,-0.00135212259756767,-0.00940411138815854,103
133,4.4,120.458751350105,0.995148532835484,123.762669109406,1,96067,0.0190199484257003,-0.000780038569121511,-0.00368099671645084,-0.000334971623416074,-0.00422584804626468,103
134,4.43333333333333,120.670279217864,0.996896032663395,124.077729764458,1,96501,0.0137757987112925,0.00176928997699775,-0.000857309926041267,0.000251380143272336,-0.00135183369003748,103
135,4.46666666666667,120.550864567334,0.995909509783637,123.621862838848,1,95163,0.0197598809340658,0.00106165575718751,-0.00121067197294637,0.000252164023970245,-0.00147471681124044,103
136,4.5,120.455467736602,0.995121405847011,122.636511448237,1,94920,0.0184298090396209,-0.00237207072136348,-0.00422439720087339,-0.000288055454673704,-0.00421865643625324,103
137,4.53333333333333,120.630497739386,0.996567385059978,123.119231806209,1,96434,0.0126879271971476,-0.00710327476998996,-0.00846252137878909,-0.00112015107486671,-0.00830738217012405,103
138,4.56666666666667,120.495463482529,0.995451823582814,124.78978919012,1,85132,0.00953028382823096,-0.0113053083518198,-0.0121060782510519,-0.0018553055660174,-0.0120199203451719,103
139,4.6,120.647316393349,0.996706329376001,125.002822878507,1,88444,0.00469333299168007,-0.0133457708932423,-0.0135674608116459,-0.00207539217715836,-0.0137548647253365,103
140,4.63333333333333,121.718749552498,1.00555778370712,130.976270167767,1,96503,-0.000640544731183468,-0.0122836608354933,-0.011972371931629,-0.00146110882403214,-0.0125205035042277,103
141,4.66666666666667,121.495778287558,1.00371574629031,129.85550903921,1,95307,0.015031934047645,-0.0081146253141698,-0.0073694109202769,0.000100161915245417,-0.00820106044288252,103
142,4.7,120.811736631809,0.998064657909534,124.073918530538,1,94293,0.0287404765576249,-0.00170222084680249,-0.000638382326950436,0.00245123148732439,-0.0015473328614822,103
143,4.73333333333333,121.016171257495,0.999753558180633,125.599796433402,1,95628,0.0274801665362103,0.00554121780024028,0.00682680815411193,0.00517873839059601,0.00608239157557754,103
144,4.76666666666667,121.297481461869,1.00207755236136,127.269942809876,1,98327,0.0199351061106121,0.0120763528379387,0.0135274789137311,0.00769246276193669,0.0131163272234257,103
145,4.8,120.670608262645,0.996898751008285,124.248608337229,1,94132,0.0419504923832612,0.016620103205338,0.0182326971952443,0.00936519765016972,0.0181891770677419,103
146,4.83333333333333,120.614620716055,0.996436219857811,122.587731776623,1,94901,0.0349195764814478,0.0184142098693484,0.0202313213047988,0.00967762590529198,0.0204494086821624,103
147,4.86666666666667,120.418618257098,0.994816980431227,122.297274926095,1,93025,0.0451488624174683,0.0173519307130051,0.0194312844396368,0.00837115713217644,0.0197275762803682,103
148,4.9,120.648167550439,0.996713361058797,123.350279615419,1,94475,0.0453942394866771,0.0139460190605283,0.0163108651245033,0.0055162785323171,0.0165029720061012,103
149,4.93333333333333,120.604942037427,0.996356261177112,121.386743153929,1,93959,0.0167249438887622,0.00913752196093126,0.0117517459599635,0.001523489869719,0.0117333774771732,103
150,4.96666666666667,120.582383880983,0.996169900982967,120.174695680276,1,92830,0.0220361803771438,0.00400300504033778,0.0068049579023524,-0.00292781578932565,0.00659149315173592,103
151,5,120.798374460519,0.997954268709862,121.091358290304,1,92960,0.0155908234067446,-0.000518120849268771,0.00245464520640907,-0.00704483814685569,0.0021692293048672,103
152,5.03333333333333,121.665307201552,1.00511627923742,128.716841723283,1,99206,0.0240959839093922,-0.00376140427118697,-0.000561801485064505,-0.0100783330919614,-0.000739295897029226,103
153,5.06666666666667,121.723544159122,1.00559739349631,128.736432236644,1,99390,0.0225275182994484,-0.00532604050660985,-0.0018481750347768,-0.011498701765097,-0.00177477255365073,103
154,5.1,120.808808502729,0.998040467692336,121.355005369841,1,93423,0.0161323966444815,-0.00501476312474767,-0.00136476177070566,-0.0111019952826284,-0.00100603730133235,103
155,5.13333333333333,120.832457958238,0.998235843459467,121.932384777039,1,92632,0.0160329446655809,-0.00284470929412741,0.000610755389627324,-0.00905045708556979,0.00116795256477984,103
156,5.16666666666667,120.999066323612,0.99961224881401,123.205254125698,1,92651,0.01227009146643,0.000850427296946408,0.00355638799804465,-0.00582813597245656,0.00416863332514044,103
157,5.2,120.979880230962,0.999453746324676,123.613710082526,1,92900,0.0153815125486405,0.00533509681547812,0.00680368324280744,-0.00212107863701822,0.00737375082834833,103
158,5.23333333333333,120.984773837317,0.999494173982522,125.518196154654,1,93637,0.0382600406928808,0.00954667005619712,0.00965049602704287,0.00134298805201657,0.0101931004767326,103
159,5.26666666666667,120.900325721689,0.998796520906877,125.252370689655,1,92800,0.0387863691927399,0.0123703406802783,0.0114665711542665,0.00395263630504916,0.0120749702655266,103
160,5.3,120.77229418775,0.997738811178623,125.258483973215,1,92439,0.0437742747968701,0.0129926597740685,0.0117660305899571,0.00534918620376231,0.0125092753220566,103
161,5.33333333333333,121.189994173568,1.0011895652616,127.839939917808,1,94981,0.0264999948664708,0.0111368188376158,0.0102434859568723,0.00547556933363301,0.0110625951708373,103
162,5.36666666666667,121.840473797404,1.00656338688971,133.224968540268,1,95360,0.00844919731048099,0.00707092454539129,0.00680808222735576,0.00456645498411957,0.00751773671727641,103
163,5.4,121.200381528863,1.00127537854844,130.342025898313,1,89195,0.0236734068416911,0.00145681354490897,0.00166114096796254,0.00305999196474635,0.00207044496416367,103
164,5.43333333333333,121.334061403541,1.00237975103831,130.457932572855,1,90557,0.0073100473242671,-0.00479614066389913,-0.00458537614070062,0.00145647577114941,-0.00452540521192869,103
165,5.46666666666667,120.970610882485,0.999377169252158,130.174026920537,1,87814,0.0275364748059412,-0.0105866868588502,-0.0108413655549273,0.000200917879902584,-0.0109619711668125,103
166,5.5,121.157657202053,1.00092241912736,133.070813262685,1,83040,0.0118471933242339,-0.0146785148639048,-0.0156675335225376,-0.000448747352033584,-0.0156876958261707,103
167,5.53333333333333,121.029807577442,0.99986621221064,133.182860032362,1,82400,0.0223788277266581,-0.0159406955169593,-0.0176876558556764,-0.000442995299104329,-0.0173962634623184,103
168,5.56666666666667,121.999558716216,1.00787763862964,136.683585309465,1,97033,0.000349178329284605,-0.0138345877702083,-0.0161958976505151,5.29094142385105e-05,-0.0156129609545964,103
169,5.6,122.624539848936,1.01304080901208,140.113692503493,1,101883,-0.0284971339936244,-0.0089362655441506,-0.0116764304395364,0.00074892254352216,-0.0110410200483286,103
170,5.63333333333333,121.338995204667,1.00242051075811,132.80072968005,1,95567,0.0320350999748471,-0.00307888036966511,-0.00588700666677419,0.00134389365806638,-0.0054782339747691,103
171,5.66666666666667,121.509933785112,1.0038326894137,134.256867320929,1,95986,0.0280096602269939,0.00119991433390752,-0.00131646698883255,0.00160851562858475,-0.0012671833443614,103
172,5.7,120.988425618398,0.999524342521909,129.973824607037,1,95344,0.0470499519142806,0.00179258090528063,-0.000158745418806625,0.0014965075883142,-0.00036997332310042,103
173,5.73333333333333,120.726722131519,0.997362325747812,129.064343447167,1,94524,0.0565207365323226,-0.00184245811862906,-0.00326131681393169,0.00113191984656291,-0.00351699183387994,103
174,5.76666666666667,122.268575986649,1.01010007692472,139.31941414667,1,99934,-0.00934229231885997,-0.00824355059804784,-0.00959104578808705,0.000767607626042603,-0.00975142552417351,103
175,5.8,121.678912385202,1.00522867604044,136.245603389761,1,97234,0.0132855180151288,-0.0145326811325979,-0.0165357140390197,0.000708773428356767,-0.0166324074947735,103
176,5.83333333333333,122.577815454208,1.01265480374189,140.641775428688,1,104816,-0.0255327779458905,-0.0177306433857588,-0.0209445864453024,0.00114554137610077,-0.0211513454499357,103
177,5.86666666666667,121.042835940976,0.999973843716948,133.628219976695,1,94113,0.0440879731066581,-0.0160830515142008,-0.0204458252107143,0.00211193318531788,-0.02088335261527,103
178,5.9,121.109548539279,1.00052497797311,133.602294037195,1,94564,0.0357415151157556,-0.0097430904097307,-0.0144605889253285,0.00337191962880815,-0.0150981517230675,103
179,5.93333333333333,121.160974958106,1.00094982817843,132.302041475193,1,97054,0.0366807860068925,-0.000601036431494398,-0.00449833980627255,0.00449696696123497,-0.0051531291260138,103
180,5.96666666666667,121.162292280057,1.00096071099925,132.362891015275,1,97087,0.0377886217440691,0.00849646556162318,0.006357485833914,0.00492603889888922,0.00585721514554585,103
181,6,121.003969901453,0.999652758849516,131.97817958534,1,97172,0.0473780918464146,0.0147202150049778,0.0145509976504077,0.00413500464505127,0.0142292350235585,103
182,6.03333333333333,120.857961576596,0.998446537062928,133.094490448907,1,94073,0.0473321498977182,0.0161024036039681,0.017331575339116,0.00179473168973896,0.0170454738827109,103
183,6.06666666666667,120.880218586006,0.998630409384467,133.820944132151,1,93751,0.0467238526324762,0.0120938891872414,0.0137621651643864,-0.00208688418723754,0.0133327540755156,103
184,6.1,121.027542290612,0.999847497946707,134.653976186976,1,95242,0.0395137899076912,0.00376937923639378,0.00511150657383289,-0.00709976907830469,0.00448508012842644,103
185,6.13333333333333,120.938355511856,0.999110697249105,134.773298833356,1,95459,0.0536511362079635,-0.0063717031984009,-0.00551932431217948,-0.0124482836384727,-0.00620430005423695,103
186,6.16666666666667,121.207898429863,1.00133747808806,136.428477223246,1,95536,0.0318738999554831,-0.0150413509448039,-0.0142349511372156,-0.0170863297489977,-0.0147495439444634,103
187,6.2,121.961492324371,1.00756315990916,140.53432131236,1,98855,0.00298968818081446,-0.0191579783198417,-0.017704590645325,-0.0199100757167664,-0.0179118975241199,103
188,6.23333333333333,121.530003253443,1.00399848975398,138.934204488641,1,97342,0.0233453398060992,-0.0169201665041776,-0.014346895847196,-0.0199991987268196,-0.0143243442514306,103
189,6.26666666666667,121.81010777963,1.00631252343897,141.104414043658,1,97439,0.00585770472790692,-0.00851786500774558,-0.00487075224351415,-0.0168561252163388,-0.00488697209180259,103
190,6.3,120.716405200199,0.997277094256112,133.175464356767,1,94665,0.0628337829823411,0.00389958356016083,0.00806381719034516,-0.0105303952888804,0.00774314970632608,103
191,6.33333333333333,120.750516814098,0.997558901282534,134.015478943312,1,95140,0.0636384439835216,0.01705082995737,0.0209285658074401,-0.00170536278485071,0.0202207567519421,103
192,6.36666666666667,120.749408285191,0.997549743368281,134.207035961738,1,95064,0.0670254671694059,0.0277793926952311,0.0306780813214987,0.00841601590648497,0.0297741406536945,103
193,6.4,120.644827886234,0.996685771017424,134.087496631919,1,95257,0.072408020398643,0.0341439007901797,0.0357683531111628,0.0182800060917843,0.035022312933859,103
194,6.43333333333333,120.547628734869,0.995882777529697,133.409167828336,1,96126,0.067858148914123,0.0358547867618064,0.0364116290294499,0.0262646484650068,0.0361277239318191,103
195,6.46666666666667,120.49964622584,0.995486378572154,133.185454987581,1,95955,0.0690591738253428,0.033933295024194,0.0340191402511812,0.0309806295742227,0.034261879755884,103
196,6.5,120.547683965259,0.995883233805736,133.216394922818,1,95985,0.0622008922758499,0.0298570603399449,0.0301811140539138,0.031533895178718,0.0307313311582402,103
197,6.53333333333333,120.624072654975,0.996514305368768,133.265516870948,1,96191,0.0511819870602799,0.0246742896074983,0.0257428308837093,0.0277094766438949,0.0262342187765389,103
198,6.56666666666667,120.674611751922,0.99693182512233,133.270527429453,1,96095,0.0454699558618761,0.0185399129165671,0.0204547477257538,0.02002462744536,0.0206023904873751,103
199,6.6,120.718431280746,0.997293832359912,133.106080973949,1,96706,0.0432330331322222,0.0108871168385126,0.0133518079471549,0.00964524745670025,0.0131321517499383,103
200,6.63333333333333,120.697301685884,0.997119273972985,132.388783395586,1,95846,0.0362730331600383,0.00110892215655063,0.00362198437438667,-0.00182047472062356,0.00328820109204816,103
201,6.66666666666667,120.768774530128,0.997709734153669,132.651127258027,1,97301,0.0322121372938677,-0.0106537320919021,-0.00853694350486915,-0.0126083137255903,-0.00861035746060445,103
202,6.7,121.723413314031,1.00559631254288,138.171203155819,1,98865,-0.0146951405662246,-0.0230874544998395,-0.0215637580646954,-0.0211242466308082,-0.0211251144356589,103
203,6.73333333333333,121.702044058861,1.00541977424499,137.850933125184,1,98647,-0.0132156873002653,-0.0339184897100865,-0.0329022818251266,-0.026207252822149,-0.0319801267070237,103
204,6.76666666666667,121.595877094471,1.00454269476621,136.777172310727,1,98363,-0.0108766829600291,-0.0406839781893618,-0.0399276359469238,-0.0273387395352302,-0.0388232036841739,103
205,6.8,122.000498142306,1.00788539953107,138.326512880664,1,99749,-0.0290527560073821,-0.0416917803426754,-0.0409820068837977,-0.0246947712198879,-0.0400773593927152,103
206,6.83333333333333,122.051183755443,1.00830412970205,137.967114673444,1,102305,-0.0301072043170092,-0.0367171312779805,-0.036032524331497,-0.019078423544617,-0.0355505737624382,103
207,6.86666666666667,121.270978764905,1.00185860504782,134.242820541842,1,97187,-0.000667313150810145,-0.0271261946129732,-0.0266722624124316,-0.0117314020581942,-0.0265363669757654,103
208,6.9,120.612274475915,0.996416836812518,130.441452344932,1,89235,0.00836177290683215,-0.0153939248634048,-0.0155138280853968,-0.00407159998978593,-0.0154089613746078,103
209,6.93333333333333,120.63189542843,0.996578931819226,128.914133850794,1,94822,0.0224532479579005,-0.00426669808848311,-0.00529465153032722,0.00260054356438494,-0.00488385742342526,103
210,6.96666666666667,120.765612998395,0.997683615722009,128.609058295342,1,96074,0.0171442383740521,0.00403985375089643,0.00191020623354129,0.00733477178739826,0.00274563269406791,103
211,7,120.868767597306,0.998535809079572,128.040613242256,1,96036,0.00798163957869846,0.00830817358771245,0.00510533745777985,0.00969383286341338,0.00617983607477212,103
212,7.03333333333333,120.713405235462,0.997252310581423,126.17904983282,1,95506,0.00472000196381783,0.00840123431022514,0.00439573444816161,0.0097834963114295,0.00533527063361544,103
213,7.06666666666667,120.645937380417,0.996694936906131,125.716208256239,1,96202,0.0220245351764223,0.00511799064460339,0.000763091181936453,0.00817251251870381,0.00125350014738856,103
214,7.1,120.368667754448,0.994404323244683,125.298145939499,1,92230,0.0328399593684816,-1.21751394243267e-05,-0.00422807683992375,0.00571201007113491,-0.00423452218113842,103
215,7.13333333333333,121.284300544541,1.00196866055903,131.262822083384,1,97956,0.0115519427554145,-0.00498518022933238,-0.00872666096939375,0.00330885338128447,-0.00898325274564862,103
216,7.16666666666667,122.016962300061,1.00802141523977,133.988364167011,1,104161,-0.00285421469201808,-0.00773411050338026,-0.0109367055624029,0.00170751088547931,-0.0110627380248248,103
217,7.2,122.112987936016,1.00881471393882,134.891560639664,1,102804,-0.0126856182522155,-0.00672529585270047,-0.00955138802777606,0.00131651611043783,-0.00927948022229084,103
218,7.23333333333333,120.832782504152,0.998238524637762,128.338775435111,1,90590,0.0124447020177891,-0.00155872250718508,-0.00421570879708477,0.00214448992940255,-0.00355424057258219,103
219,7.26666666666667,120.512660707216,0.995593895393489,125.328156308893,1,89498,0.0290527508274305,0.00672944849208511,0.00417157264486595,0.00382158172504363,0.00494320762995673,103
220,7.3,120.386157557437,0.994548812138926,122.985052139518,1,92700,0.0240566842534391,0.0158719842425834,0.013532167029763,0.00572728376556386,0.0140348518205904,103
221,7.33333333333333,120.473439257534,0.995269874368287,123.983429808512,1,93461,0.0281916595543446,0.0230614345842259,0.0211550760934472,0.00716840548074709,0.0211348700915267,103
222,7.36666666666667,120.620255703049,0.996482772299847,123.804760038001,1,94383,0.032686308839474,0.025897361777204,0.0245977623947886,0.00756260482330608,0.0240692862369123,103
223,7.4,120.37488531204,0.994455688490014,122.532229847934,1,94126,0.044125110957288,0.0232609823111178,0.0226204452409792,0.00659468187578397,0.0218530226066641,103
224,7.43333333333333,120.291868105173,0.993769856612403,121.055878034684,1,92857,0.03002052651855,0.015790913900829,0.0157522336299182,0.00428587511917262,0.0150946295244001,103
225,7.46666666666667,120.304767205077,0.993876420230243,121.302894749254,1,91879,0.0333727834618185,0.00573559028040248,0.00619515761545887,0.000995644758867546,0.00586437410748836,103
226,7.5,121.868848070735,1.00679779589826,129.836804858798,1,99668,-0.0108797023001124,-0.00382627814195373,-0.00295566429718958,-0.00268901255856854,-0.00301923739018366,103
227,7.53333333333333,121.373297511433,1.00270389315971,126.645078420305,1,97445,-0.00029262757046622,-0.0101229100875344,-0.00887847005688868,-0.0060733297958444,-0.008958898763587,103
228,7.56666666666667,121.618249057764,1.00472751675878,129.87149014388,1,94662,-0.00622150843042935,-0.0117053258254569,-0.0100799336190696,-0.00854586119019746,-0.0105076911278796,103
229,7.6,120.928297887127,0.999027607972644,124.884228812952,1,93060,0.0132284039830011,-0.00889056086669551,-0.00687806322491875,-0.00968808846558214,-0.0077940329217379,103
230,7.63333333333333,120.655435654729,0.996773405208679,125.688190417826,1,84852,0.0141461528718696,-0.00345934079704104,-0.00112057614547193,-0.00937625329576594,-0.00237405891336926,103
231,7.66666666666667,120.670046122048,0.996894106983802,125.410221619177,1,86966,0.0162887120164719,0.00219654232236468,0.00469277399358765,-0.00777529745022215,0.00347251166783179,103
232,7.7,120.451882555749,0.995091787513545,123.385278928551,1,88105,0.0228826090015897,0.00604434967870555,0.00845267675714849,-0.00528623461306627,0.00763458565005026,103
233,7.73333333333333,120.690850835035,0.997065981416936,124.316248490541,1,89436,0.0176585238253049,0.00707331296837008,0.009180653379521,-0.00243743055238544,0.00890637249965012,103
234,7.76666666666667,120.696082686865,0.997109203429577,124.625113848451,1,89300,0.0158172004953565,0.00543472637590661,0.00719148918690942,0.000243693432065393,0.00728670754894452,103
235,7.8,120.79870498018,0.997956999239209,124.531007236745,1,90280,0.00842085838531581,0.00211452576485655,0.00370197005224076,0.00233651558032781,0.00377409516659051,103
236,7.83333333333333,120.754449834054,0.99759139322683,124.082981467803,1,90707,0.00810058443571915,-0.0016139983310579,0.000158185325549257,0.00360364656995091,-0.000173348847397303,103
237,7.86666666666667,120.658999426915,0.996802846678248,123.968141311149,1,90033,0.0135828535039404,-0.00467515438157136,-0.00236717519309136,0.00400871613859629,-0.00325065900483213,103
238,7.9,120.787419762137,0.997863768419094,124.266424075166,1,89863,0.0056222653892215,-0.00644274129261633,-0.00346119203841163,0.0036856483173397,-0.00472926445732375,103
239,7.93333333333333,120.850496345924,0.998384864388531,124.219186157905,1,90468,0.00633834774864983,-0.0067541646636036,-0.00330024716234489,0.00287831829303877,-0.00456174715312696,103
240,7.96666666666667,120.976951384786,0.999429550183315,124.775322324025,1,91135,0.00327890739592496,-0.0057941913591435,-0.00236398829472509,0.00185681443844473,-0.00321735575752425,103
241,8,121.413988531849,1.00304005478194,129.23704413554,1,92873,0.00288012170173024,-0.00396421187525537,-0.00114188177789398,0.000853935991094227,-0.00137725459028101,103
242,8.03333333333333,120.942409320878,0.999144187070772,124.463026876596,1,91269,0.00583683059446827,-0.00178856083059692,1.92541113869699e-05,1.99094552558971e-05,0.000332558403352918,103
243,8.06666666666667,120.983406712699,0.999482879725838,124.959504582028,1,90644,0.00647200965607553,0.000159094690782739,0.000904874404851519,-0.000586768618037949,0.00148505782658218,103
244,8.1,120.858404982974,0.998450200185796,123.836170181573,1,90946,0.0110951291067152,0.00134936911113132,0.00134547476333344,-0.00097758218441852,0.00186917353650657,103
245,8.13333333333333,120.68980447302,0.9970573370834,122.760093632752,1,90709,0.0102400529955391,0.00142397775843842,0.00116837822235686,-0.00119861300521129,0.00144294074561194,103
246,8.16666666666667,120.74730478575,0.997532365682069,123.174432444346,1,90740,0.00521989957748659,0.000324156723255914,0.000251914829691595,-0.00128943025772138,0.000301444848293882,103
247,8.2,120.768028974484,0.997703574878428,122.960046728116,1,91023,-0.00114738139805182,-0.00163554209906294,-0.00134545201418471,-0.00125841185941506,-0.00132092637255576,103
248,8.23333333333333,120.821958555022,0.998149104508668,124.158276078829,1,90677,0.00442283233968466,-0.00379501440937938,-0.00327725279942554,-0.00107498134534508,-0.00303302608228103,103
249,8.26666666666667,120.807857990477,0.998032615204558,124.178693929939,1,90378,0.00329706902623972,-0.00529615973559937,-0.00492410605339957,-0.000688935124900206,-0.00432013793458819,103
250,8.3,120.916733316693,0.998932069332476,125.247439137954,1,90204,0.00161512850116274,-0.00533550177817687,-0.00557263623556686,-5.67152260709046e-05,-0.00465176929191314,103
251,8.33333333333333,121.02864991553,0.999856648392811,126.336579418936,1,90776,-0.000136839685921153,-0.0034657089497356,-0.00470456034857511,0.000822587127873395,-0.00366068107874712,103
252,8.36666666666667,121.630972520334,1.00483262938005,130.485829467994,1,93351,-0.0105152284017929,0.0001607730951374,-0.00226620775626931,0.00188199208978753,-0.00132459213409092,103
253,8.4,121.734344434501,1.00568661804892,132.866800074821,1,94447,0.0156229089108342,0.00473684463706684,0.00122229864845397,0.00298986457614891,0.00194785041074771,103
254,8.43333333333333,121.651640892875,1.00500337746086,132.172405542461,1,93340,0.0141175688268969,0.00901133638509402,0.00479102243840654,0.00395344728400128,0.00535712620576651,103
255,8.46666666666667,121.445226711458,1.00329812344244,130.738545304748,1,93055,0.0190766481423879,0.0117102944903527,0.00733661892575342,0.00457133394791101,0.0079264686596758,103
256,8.5,121.117875105717,1.00059376641962,128.135076252723,1,92259,0.0189884106986584,0.0119876210261162,0.00799652262644245,0.00466580559094613,0.00877849954235369,103
257,8.53333333333333,121.508133255752,1.00381781466087,131.427375149535,1,93345,0.0169822173865564,0.00969925095223776,0.0064264656637973,0.00413394318431034,0.00742747209265245,103
258,8.56666666666667,121.695288431172,1.00536396382932,132.792908317634,1,93424,0.00120596910048887,0.00539456597554283,0.00288685530481279,0.00296994658267335,0.00395354661635964,103
259,8.6,121.776564098538,1.00603540828834,133.576990194301,1,93789,-0.00222230332149964,7.30736502164238e-05,-0.00186106925057922,0.00127589645873259,-0.000975202156579087,103
260,8.63333333333333,121.644805164127,1.00494690530456,133.427852540751,1,93332,0.00592948709041519,-0.00514084230270612,-0.00677776302750903,-0.000757601906263939,-0.00626267638140255,103
261,8.66666666666667,121.636693650305,1.00487989347695,133.145171247253,1,94493,0.00380995115811134,-0.00926299357796657,-0.0108027096465782,-0.00288395736519472,-0.0106778995419819,103
262,8.7,121.556567209874,1.0042179431517,132.342773122219,1,94988,0.00133261271721841,-0.0116117690559237,-0.0130941324766668,-0.00483965621874492,-0.0132036703411782,103
263,8.73333333333333,121.585323084507,1.00445550469149,131.979415099093,1,95264,-0.00617660567602796,-0.0119106920451946,-0.0132282574717075,-0.00638859516094172,-0.0133467129438366,103
264,8.76666666666667,121.624973957917,1.00478307332437,132.298536336223,1,95286,-0.00733708871218397,-0.0103644065952856,-0.0113305707933721,-0.00734908154147572,-0.0112998118805614,103
265,8.8,121.598953726092,1.00456811181071,132.238631970365,1,94842,-0.0030714253175077,-0.00766262543246886,-0.00808502748843113,-0.00761297063392834,-0.0078984449135545,103
266,8.83333333333333,121.450665474692,1.00334305481681,131.523291764512,1,93259,0.000877769839012998,-0.00482220627398204,-0.00456464811806542,-0.00714825416068889,-0.00435346217933957,103
267,8.86666666666667,119.953766964914,0.990976694223548,124.862419555915,1,79144,0.0244988818291452,-0.00284038002237218,-0.0018822792431609,-0.00598611906224236,-0.00181888220326055,103
268,8.9,119.631875132999,0.988317442150363,121.935556564805,1,77065,-0.00251538867700685,-0.00227015822338622,-0.000758646853660057,-0.00422298496679477,-0.000965483442173083,103
269,8.93333333333333,119.936123905688,0.990830939230192,124.910950402756,1,78956,0.0254608462766384,-0.00293033997947559,-0.00118600832189138,-0.00198354607704354,-0.00166794889510783,103
270,8.96666666666667,121.36265599414,1.00261598015876,131.407126968791,1,89014,-0.000240337201881768,-0.00393392085086446,-0.00236590601830815,0.000551699293487589,-0.0030393251494196,103
271,9,121.078433177313,1.0002679239487,129.463111202335,1,87696,0.00604807845407507,-0.00406399409508811,-0.00299852595540595,0.00318606162253666,-0.00373204435639253,103
272,9.03333333333333,121.071917064037,1.00021409223873,129.336021229046,1,87553,0.00815686380447289,-0.00233925946574525,-0.00183991373459332,0.00568120360870421,-0.00252873178284602,103
273,9.06666666666667,120.934245237052,0.999076740945432,127.746957193564,1,89309,0.0179177069242202,0.0014940879789333,0.00169758704159118,0.00778617069124045,0.00109993732474862,103
274,9.1,120.691873636133,0.997074431106157,126.342384253743,1,88131,0.0238281685760171,0.00677080278854528,0.00717141258260044,0.00924718413701212,0.00664231777228691,103
275,9.13333333333333,120.647341281698,0.99670653498667,126.066539822874,1,87772,0.027320305608892,0.0120948579219909,0.0131518201016568,0.0098418728885737,0.012624513587405,103
276,9.16666666666667,120.693459402983,0.997087531636719,126.188992173701,1,87568,0.0229475012690261,0.0158223221375705,0.0177007318417326,0.00941294812103518,0.0171030730763332,103
277,9.2,120.480756366533,0.995330323361851,125.072064063699,1,87746,0.034135284137895,0.0166500473565456,0.0191151794852105,0.00791019729476473,0.0184161840449415,103
278,9.23333333333333,120.435954330119,0.994960199312698,124.591087895789,1,87873,0.0323495790848227,0.0140983336937357,0.0166370400589666,0.0054125709629729,0.0158729588352767,103
279,9.26666666666667,121.068223297502,1.00018357684398,128.350449811897,1,91705,0.0134168786860762,0.00871747214835205,0.0108242965215902,0.00214198153517177,0.0100917909248301,103
280,9.3,120.989907339401,0.999536583496234,128.173780521112,1,91535,0.0157349100516773,0.00193961170411464,0.00340499571594749,-0.00154852055509104,0.00281597133556685,103
281,9.33333333333333,120.959692852735,0.999286971892771,127.643624574368,1,92020,0.0144995487880171,-0.00438163340251421,-0.00335122204345793,-0.00521839759288106,-0.00373733086848551,102.935377514013
282,9.36666666666667,121.224291520292,1.0014729066867,128.37066481343,1,94969,0.00383872290359921,-0.00859039983755309,-0.0074966525495325,-0.00839231816453336,-0.00771514171465707,102.803494889548
283,9.4,120.942234984291,0.999142746820091,126.795336456014,1,91161,-0.0131564554423451,-0.00978798087045225,-0.00814130830208373,-0.0106353429870373,-0.00831449491954514,102.671612265084
284,9.43333333333333,120.823697720349,0.998163472313451,126.666703407329,1,90726,-0.00530469223797292,-0.00811327209311516,-0.00573896227450568,-0.0116181925020882,-0.00600534532582851,102.53972964062
285,9.46666666666667,120.926405417359,0.99901197367051,128.399551614983,1,92034,0.0161205616910252,-0.00461053874242605,-0.00179310273681228,-0.0111742479944876,-0.00221438181041556,102.407847016156
286,9.5,120.757740386717,0.997618577541943,126.882145901302,1,90728,0.000959944254454559,-0.00072560965286155,0.00188160221773456,-0.00933409076920006,0.00137052099143763,102.275964391691
287,9.53333333333333,120.999937501019,0.999619445891092,128.761542618201,1,91913,0.0154905374189211,0.00233742348135504,0.00399165773362242,-0.00631370443295357,0.00356483142571993,102.144081767227
288,9.56666666666667,120.289039521956,0.99374648877564,124.315162470513,1,84641,0.00391994612415658,0.0040858456847378,0.00429102382698639,-0.00250399472207902,0.00412459805350662,102.012199142763
289,9.6,119.882634151643,0.990389043148225,123.038841946682,1,81424,0.00697705539515692,0.00481357089780132,0.00355312525881495,0.00160399370928899,0.00371798277088317,101.880316518299
290,9.63333333333333,119.749846818992,0.989292044235442,122.14872358557,1,80969,0.00829183285742285,0.00526956272774211,0.00302024018090888,0.0054749340496888,0.00341648537308956,101.748433893834
291,9.66666666666667,119.809413579723,0.989784144426442,122.165614069985,1,80436,0.00374817070354139,0.00611053940970814,0.00362713202959612,0.00861197766889064,0.00402773212522852,101.61655126937
292,9.7,119.629518527701,0.988297973475159,121.166291805407,1,79585,0.00584149448217275,0.00743018621969778,0.00541016587421529,0.0106241913818886,0.0055895632212647,101.484668644906
293,9.73333333333333,119.500880098451,0.987235249989322,120.285065543071,1,78320,-0.00190884488721998,0.0086185885927236,0.00741710687924711,0.0112739261876642,0.00729196618827472,101.352786020442
294,9.76666666666667,119.494894146739,0.987185798114744,120.439124643197,1,78825,0.00289353787805258,0.0086457174549368,0.00817290688102865,0.0105105285522251,0.00787082504613355,101.220903395978
295,9.8,119.869961544362,0.99028435065888,122.854993366055,1,81902,0.0160481919899609,0.00664156720364797,0.00646358071838944,0.00846887299423,0.00626034576126449,101.089020771513
296,9.83333333333333,119.886589807214,0.990421722092631,123.097098803493,1,82713,0.0157211995729671,0.00246124560517247,0.0020259533590572,0.00544973713018994,0.00218706964054545,100.957138147049
297,9.86666666666667,121.519944617025,1.00391539211963,129.63822746565,1,97307,-0.0238893611141693,-0.00310587308361174,-0.00422664161205267,0.00187133448517435,-0.00361524701446569,100.825255522585
298,9.9,121.514718901838,1.00387222080379,130.123961360566,1,97724,-0.0187303505719858,-0.00863667929222442,-0.01056808586377,-0.00177731731154248,-0.00965230537078838,100.693372898121
299,9.93333333333333,121.673216352179,1.00518161927751,130.951911598151,1,98007,-0.025096252798261,-0.0127257668080114,-0.0152222072817621,-0.00502019693002472,-0.014296552859587,100.561490273656
300,9.96666666666667,121.62346653165,1.00477061999059,130.78382802974,1,98141,-0.019693012916985,-0.0146074515702413,-0.0171261143072558,-0.00744048517819425,-0.0164398845247764,100.429607649192
301,10,121.775850730723,1.00602951492712,131.429416836759,1,98966,-0.025049568352264,-0.0143992644956442,-0.016311995812214,-0.00875220700387631,-0.0159216139409773,100.297725024728
302,10.0333333333333,121.785408816532,1.0061084773517,133.629144157918,1,98110,-0.00508040630511175,-0.0128679573001166,-0.0137464929251125,-0.00882532331534289,-0.0134876783210003,100.165842400264
303,10.0666666666667,121.872211154591,1.00682557941692,134.020565978991,1,98496,-0.0122307586868806,-0.0109072055232196,-0.0107571838823504,-0.00771594113659887,-0.0103781670551406,100.0339597758
304,10.1,121.914696383564,1.00717656357378,134.336102254005,1,96909,-0.0157713647344639,-0.00906125768127722,-0.00837222756656037,-0.00564431021239444,-0.0077113715584779,99.9020771513353
305,10.1333333333333,121.921976514539,1.00723670707998,134.275328716871,1,97044,-0.0193197343741986,-0.00735592391141867,-0.00690591120429047,-0.00297265469883677,-0.00600678961373836,99.7701945268711
306,10.1666666666667,121.971201630015,1.00764337160951,134.605439788522,1,96842,-0.0178362290322687,-0.00547438331398102,-0.00595824070420016,-0.00014453089078712,-0.0050323904725443,99.6383119024069
307,10.2,121.742785352905,1.00575635119385,133.696285853487,1,96469,-0.00258023746942282,-0.00310346500089344,-0.0047707663913235,0.00238440986477282,-0.00404591476037254,99.5064292779426
308,10.2333333333333,121.772970479681,1.00600572024581,134.185032829408,1,96509,-0.000195030691072517,-0.000214178342248084,-0.00271941408381582,0.00421687272058643,-0.00228549143978519,99.3745466534784
309,10.2666666666667,121.775183305496,1.0060240011124,134.127925478557,1,96366,0.00510750908324153,0.00286269292756776,0.000304576066185071,0.00508647969847002,0.00054992730293891,99.2426640290142
310,10.3,121.697042462155,1.00537845444407,133.85879088785,1,95872,0.00618802967890808,0.00555489941033065,0.00378760116105899,0.00489940529292971,0.0040532256409876,99.1107814045499
311,10.3333333333333,121.683431861149,1.00526601288653,133.71849345115,1,95742,0.00576913080016617,0.00725955383477432,0.00678534631105454,0.00375596510293023,0.00723349247910824,99
312,10.3666666666667,121.62147575112,1.00475417351159,133.523367131877,1,95369,0.00473884317137641,0.00754796415618301,0.00831762357309965,0.00193207428941035,0.00894710898032783,99
313,10.4,121.610712268133,1.00466525291278,133.027621977593,1,95564,0.00756123655916818,0.00631677507891776,0.00780431932737954,-0.000169333800986137,0.00845085008233272,99
314,10.4333333333333,121.629410172575,1.00481972232214,133.21310483383,1,96397,0.00828383239826147,0.00387274395050215,0.00537319724956851,-0.00209445651771481,0.00581740938969328,99
315,10.4666666666667,121.594922743735,1.00453481056748,132.77919782367,1,96554,0.00959304173408082,0.000932064223349238,0.00191300160955527,-0.00342404569224942,0.00201956813960014,99
316,10.5,121.543418757895,1.00410931955608,132.824920704938,1,95214,0.00831847732780355,-0.00150503050918728,-0.00117362934500452,-0.00385732722332556,-0.00138099651802557,99
317,10.5333333333333,121.588467584693,1.00448148242006,132.185157158099,1,97789,0.0061399605801018,-0.00242766525108453,-0.00245774474270621,-0.00327247273279119,-0.00282617197044691,99
318,10.5666666666667,121.893502890261,1.00700147730126,133.500395874782,1,98516,-0.00613314573228463,-0.00118629317139764,-0.00104970421996482,-0.00175809307781114,-0.00141120660837577,99
319,10.6,120.830667129361,0.998221048845462,126.883610970709,1,92987,0.0195278953321032,0.002176931435265,0.00297858088585302,0.000409336296691391,0.00270188831582742,99
320,10.6333333333333,120.955035420406,0.999248495344592,126.795970778168,1,93583,0.01307943546513,0.00681334390295828,0.00851130836856749,0.00280302286199119,0.00826011228658387,99
321,10.6666666666667,120.928288120287,0.999027527285631,128.072892880977,1,92405,0.0145294847839885,0.0112741252680904,0.0137241201154446,0.00494524875275568,0.0133599568770486,99
322,10.7,120.889193550332,0.998704554454713,127.080313557812,1,93550,0.0265062803514873,0.0140006997528706,0.0167407329656286,0.00639052851079204,0.01614416418923,99
323,10.7333333333333,120.803429280745,0.99799602820741,126.70782346355,1,92589,0.0341988362551353,0.0139182835442848,0.0163602939831106,0.00682133397238867,0.0155185597245296,99
324,10.7666666666667,120.478881509189,0.995314834561628,123.30463711368,1,91429,0.0207274953933618,0.0108769471958473,0.0125479901447126,0.00610976007152565,0.0115653371383325,99
325,10.8,120.551167657057,0.995912013705434,124.229511813108,1,90662,0.0139551689349635,0.00572704161995614,0.00646271383891774,0.00434664149978959,0.00549822874750511,99
326,10.8333333333333,120.637208368915,0.996622823731352,123.013785153949,1,92249,0.00787674586485299,-2.2783080718955e-05,-7.93683790923129e-06,0.00181886595249188,-0.000837393496969065,99
327,10.8666666666667,120.62846685659,0.996550607283254,123.179264053174,1,91474,0.00511001186184412,-0.0048126921649124,-0.00501031387610633,-0.00104378603418395,-0.00569274448309841,99
328,10.9,120.671851139111,0.996909018810973,123.654575195906,1,90477,-0.0027685799418169,-0.00762330415615785,-0.00744836190654165,-0.00375810075578963,-0.00807510175460028,99
329,10.9333333333333,120.60642363821,0.996368501158262,123.638707322859,1,91335,0.0036356414391201,-0.00828970855742344,-0.00734743025777752,-0.00587783211290162,-0.00804353413853619,99
330,10.9666666666667,120.653159733657,0.996754603091851,123.598688587254,1,90691,0.00301249284900296,-0.00742136163267214,-0.00570646741467486,-0.00708363446093515,-0.0065463603557965,99
331,11,120.714946782668,0.997265045799275,123.572122550574,1,91467,0.00387157632046886,-0.00600171050378065,-0.00392790327279346,-0.00723430018645344,-0.00487878275235952,99
332,11.0333333333333,120.699598966254,0.997138252545854,124.119186270517,1,90841,-8.42005852152994e-05,-0.00488142547190918,-0.00311063305207581,-0.0063906546327132,-0.00404522842111461,99
333,11.0666666666667,120.606427479093,0.99636853288903,123.874353532799,1,90943,0.00421155130851103,-0.00440699694625444,-0.0035478566136844,-0.00478856605503735,-0.00431001157112676,99
334,11.1,120.684368478814,0.99701242858487,123.694757726506,1,91061,8.97274241822288e-05,-0.00434195890122281,-0.00466256435654161,-0.00278605598097214,-0.00515694409184127,99
335,11.1333333333333,120.860420561706,0.998466851530726,124.679449541284,1,92650,0.00214049221211177,-0.00409263086650226,-0.00539421160246231,-0.000778168634053378,-0.00563945487649817,99
336,11.1666666666667,120.906852840291,0.998850443535393,124.979832114812,1,92325,-0.00231992267146852,-0.00311015810976819,-0.00482753595639601,0.000881477464390572,-0.00494840924979701,99
337,11.2,120.847249234542,0.998358038955833,124.518492938798,1,92666,-0.00307461308746637,-0.00125977636483301,-0.00273609776668094,0.00195567909367418,-0.0028873009418671,99
338,11.2333333333333,120.759395293291,0.99763224925803,124.315489292491,1,92225,0.000791440058753423,0.00103950585655416,0.000242830466698811,0.00236298520080579,-2.62226638377458e-05,99
339,11.2666666666667,120.597098470053,0.996291462941392,123.272963855771,1,92094,0.00706632056147738,0.00299204042056188,0.00289838965856703,0.00218539527430662,0.00255638450116601,99
340,11.3,120.591592935078,0.99624597994417,123.020666457112,1,92259,0.00484956907069112,0.00384087234343794,0.00405861766023827,0.00163634747201469,0.00380676656481902,99
341,11.3333333333333,120.601611076117,0.996328743033157,123.417262648457,1,92844,0.0070976401781957,0.00330373318347191,0.00321238489670775,0.00100471183024311,0.00324474118786373,99
342,11.3666666666667,120.769462128066,0.997715414621642,124.606832809864,1,92651,0.00213108160237852,0.00178377181603366,0.000816014069456429,0.000577105519668012,0.00124071223572431,99
343,11.4,120.819835879152,0.998131568399804,124.685110605897,1,92370,-0.00286974900870396,0.000218344859700778,-0.00188424836552472,0.000569384953177616,-0.00111449900453756,99
344,11.4333333333333,121.012625562491,0.999724266052491,126.797238133394,1,92353,-0.00566903558599341,-0.00037673710630196,-0.00343741594981205,0.00106963214228348,-0.00250499284983054,99
345,11.4666666666667,122.075528466458,1.00850524919878,135.872059074285,1,95789,-0.0129186523271363,0.000563215542292252,-0.00289562702965373,0.00201190962208278,-0.0020179073843855,99
346,11.5,121.375770675565,1.00272432476497,130.318584730775,1,93862,0.0102197631036871,0.00282991675685693,-0.00029595489236693,0.00319379351261889,0.000402022406862815,99
347,11.5333333333333,121.403716227264,1.00295519196607,130.345584552594,1,93841,0.00692471629928937,0.00550083406323635,0.00331959365385058,0.00430916062916296,0.00386768205170188,99
348,11.5666666666667,121.286995725342,1.00199092631548,129.408747520554,1,93939,0.0045995848926661,0.00734562658726295,0.00635334159325211,0.00502938998698321,0.00691298800410184,99
349,11.6,121.24439295433,1.00163897110598,128.932998917436,1,93297,0.00310143817833541,0.00737195002422998,0.00735411862461385,0.00507003951194963,0.0081066904952183,99
350,11.6333333333333,121.113657053182,1.0005589197294,128.419573131507,1,92753,0.0115143149564134,0.005252685971512,0.00564657844033504,0.00426796520910997,0.006678856686219,99
351,11.6666666666667,121.457193258319,1.00339698293931,130.181493296152,1,94672,-0.000177951599517279,0.0014535777674671,0.00160998293578533,0.00262094778782888,0.00285171293577539,99
352,11.7,121.503102512416,1.00377625407027,130.693568704046,1,94206,-0.00440096129940359,-0.00297738108111046,-0.00350078103504565,0.000307025627857452,-0.00224003230849822,99
353,11.7333333333333,121.514476766126,1.0038702204427,130.933398832287,1,94658,-0.000823321341125727,-0.00685280506168266,-0.00809214011709074,-0.00234603375431423,-0.00701863366877356,99
354,11.7666666666667,121.589081938913,1.00448655779809,132.960393396254,1,92392,-0.00761210193589701,-0.00931943587485704,-0.01087706343583,-0.00491752159680175,-0.0100990409701729,99
355,11.8,121.676358884595,1.0052075807497,133.605087691012,1,93035,-0.0143033031519506,-0.0101524029820953,-0.0113479173486746,-0.00697357033406205,-0.0108249622519011,99
356,11.8333333333333,121.273512053506,1.00187953336068,131.034140940901,1,90927,0.00418116278309855,-0.00974582931365799,-0.00988910990375126,-0.00815135781910717,-0.00947189001634607,99
357,11.8666666666667,121.125710102699,1.00065849385257,130.229222788699,1,89834,0.007559987949735,-0.00882144089465905,-0.00750895553997565,-0.00823666288680663,-0.00704966490070087,99
358,11.9,121.366986094387,1.00265175251121,132.796048988993,1,90306,-0.000148008296403823,-0.00801603776542122,-0.00533376329339554,-0.0072018486749506,-0.00479039417637667,99
359,11.9333333333333,121.545616573063,1.00412747641487,133.967553835337,1,91978,-0.00331475447803165,-0.00756123390558977,-0.00409613929151308,-0.00521654241783766,-0.00356886260598899,99
360,11.9666666666667,121.364243480773,1.00262909489701,133.26143783701,1,91429,0.00884409607087511,-0.00720108638258294,-0.00383319245544524,-0.00261100877275357,-0.00349819294138714,99
361,12,121.263057518077,1.00179316507712,133.20026162845,1,89185,0.0103338580869159,-0.00635942323867042,-0.00390941444699751,0.000187958717689771,-0.00389698947365035,99
362,12.0333333333333,121.148484427488,1.00084663988303,133.037266536335,1,87469,0.00949855489750062,-0.00445903608974697,-0.00334487954185623,0.00274645976134954,-0.00363825755161148,99
363,12.0666666666667,121.177348331297,1.00108509388662,133.919249712784,1,87913,0.0186918612780738,-0.00125084557904331,-0.00131219415700727,0.00470773003829729,-0.00174124383155656,99
364,12.1,121.222065356214,1.00145451562842,133.251213839221,1,91720,0.0185084854736086,0.00297947841489213,0.00240091710040157,0.0058568667643418,0.00205692405484298,99
365,12.1333333333333,120.743425556858,0.997500318123076,128.120937483202,1,93015,0.0328850315222158,0.00741426643409315,0.00716354254338381,0.0061602239614701,0.0070320023929987,99
366,12.1666666666667,120.697164169812,0.997118137908436,127.807387919928,1,92367,0.0320929231699654,0.010929918600479,0.0116318676083701,0.0057471820303482,0.0116455464349465,99
367,12.2,120.665843385037,0.996859386820063,128.154388598237,1,91939,0.0319471735361465,0.0124798548594916,0.0142288357514806,0.00486950266050512,0.014153266046874,99
368,12.2333333333333,120.692431315528,0.997079038275207,128.686841338842,1,92707,0.0347946807328627,0.0115084497523128,0.0138148218695188,0.00381980185338731,0.0133886856237525,99
369,12.2666666666667,120.713369992598,0.99725201942878,128.675233720616,1,92525,0.0327256707751293,0.00824811126611822,0.0102807515591972,0.00284860933083305,0.00939316383917396,99
370,12.3,120.810370555302,0.998053372311625,129.726183579026,1,93206,0.0316454951020275,0.00376839859818394,0.00477919238338252,0.0020950804641602,0.00356726327107836,99
371,12.3333333333333,120.788056391595,0.997869027820044,128.977555725262,1,92971,0.0295956750592881,-0.000296374961643212,-0.000581762043462076,0.00154853921194947,-0.0017886545832813,99
372,12.3666666666667,120.92515380959,0.999001633735711,130.012667138334,1,93286,0.0229837795911352,-0.00231079298040481,-0.00354048938348862,0.00105710924741636,-0.00440735191678988,99
373,12.4,121.030630712873,0.999873012397488,132.145255035755,1,92621,0.0219910836772241,-0.00132812623495384,-0.00269243505205921,0.000381983111098328,-0.00308593342642014,99
374,12.4333333333333,120.930927755583,0.999049334162784,129.960614803771,1,93233,0.025913260205757,0.00237015667517736,0.0017363044985855,-0.000717736658693886,0.00165370410811528,99
375,12.4666666666667,120.864087772969,0.998497147543813,128.852735355274,1,92980,0.0280132206277321,0.00717396257049297,0.00776600999665995,-0.00238788753480962,0.00762794580963875,99
376,12.5,120.833778833658,0.998246755636631,128.768749843161,1,92983,0.0292237559783532,0.0106396225708231,0.0123571147387319,-0.0045988044417989,0.0118250735299761,99
377,12.5333333333333,120.845034205074,0.998339739884151,129.026595496127,1,92735,0.029630841506691,0.0104853329117478,0.0127101632889589,-0.00710717557977604,0.0116997209508996,99
378,12.5666666666667,120.737208046605,0.997448953268827,128.447780768219,1,92517,0.0331889487787498,0.00571845309907592,0.00762833028445648,-0.00947219769180148,0.00637682741580683,99
379,12.6,120.587291900241,0.996210447710447,127.334803921569,1,92480,0.0369535493675861,-0.00263601839847316,-0.00170976745249211,-0.0111300696675165,-0.00279045420967447,99
380,12.6333333333333,120.627733823141,0.996544551457891,127.695065202002,1,92763,0.0351175597180147,-0.0116642757685364,-0.0120110082378173,-0.0115101165006367,-0.0125948910813468,99
381,12.6666666666667,122.528136444016,1.01224438944197,139.158129957341,1,101659,-0.0397909837045858,-0.0176524366752826,-0.0191427173448442,-0.0101886093882154,-0.0192048546315991,99
382,12.7,122.518236947787,1.01216260651596,138.760866109289,1,102743,-0.0412684291781518,-0.0177125247962422,-0.0198939194829203,-0.0069950840481859,-0.0197117709898049,99
383,12.7333333333333,120.637418221994,0.996624557395211,127.660637777944,1,93439,0.0307237973335566,-0.0111406656067711,-0.0134148593918125,-0.00211102364424458,-0.0133787575865034,99
384,12.7666666666667,120.643947010041,0.996678493815552,127.849255248085,1,93812,0.028842992178133,0.000210400882745453,-0.0016521954093215,0.00391733656922828,-0.00201310049834843,99
385,12.8,120.680132498293,0.99697743378579,127.944619843877,1,94071,0.0267118094116823,0.0127054896412444,0.0114198205882282,0.0102620961658033,0.0107048959208917,99
386,12.8333333333333,120.59832996143,0.996301636688202,127.046616557318,1,94194,0.0271180810431395,0.0223873824973784,0.0213963320383564,0.015925215002448,0.0206123772116574,99
387,12.8666666666667,120.625695888566,0.996527715424154,127.107121197612,1,93987,0.0228696511523734,0.0264047400338563,0.0251316780946913,0.0199269532613097,0.0246219594316323,99
388,12.9,120.650847364757,0.996735499867782,127.181129937501,1,94135,0.0226847982499612,0.0238563183663831,0.0218021883532586,0.0214866647584309,0.0217629381320039,99
389,12.9333333333333,120.652004375282,0.996745058304294,127.69733539259,1,93885,0.0267064239165995,0.0158519689517809,0.0129594997364485,0.020175321922257,0.0133403145459728,99
390,12.9666666666667,120.66520464484,0.996854109981623,127.155015111111,1,93750,0.0216186171324768,0.00489373121825376,0.0016582833643962,0.0160112578190412,0.0022161062513136,99
391,13,122.210772767669,1.00962254591999,136.635697128075,1,101024,-0.0288020002800717,-0.00613187212683628,-0.00887804158643626,0.00946694628704307,-0.00842731351812449,99
392,13.0333333333333,122.183471615414,1.0093970023102,137.003262691274,1,100837,-0.029070977792232,-0.0149596227573233,-0.0164458243737368,0.00141276004411578,-0.016250332864357,99
393,13.0666666666667,122.035072340315,1.00817102811377,135.402835112812,1,99561,-0.0259464406074752,-0.0205609920179174,-0.0204265797283107,-0.00704187528919618,-0.0204195550153572,99
394,13.1,121.769848188545,1.00597992599335,133.726957166448,1,98910,-0.017747063480837,-0.023147354270109,-0.0215817016748798,-0.0147130609439847,-0.0215206670858197,99
395,13.1333333333333,121.821912863461,1.00641004903776,134.340311557789,1,99500,-0.0208827076845259,-0.0236467567760318,-0.021295698870944,-0.0205423161133929,-0.0209193423030413,99
396,13.1666666666667,122.245292285302,1.00990772277051,137.004070024189,1,101146,-0.0349836550692979,-0.0230072841066513,-0.0207109030702901,-0.0237560339478507,-0.0199036140494529,99
397,13.2,122.373739513356,1.0109688666817,137.411262688721,1,103504,-0.0429726038098135,-0.0217135480181549,-0.0201767445643847,-0.0239762687561704,-0.0190408010550604,99
398,13.2333333333333,122.45899717405,1.01167320766981,137.779477048601,1,103770,-0.0468647835691405,-0.0196950140571484,-0.0192126330801096,-0.0212664276458583,-0.0180038792619613,99
399,13.2666666666667,121.417473503524,1.00306884525512,132.224988589606,1,95673,-0.0193889647596226,-0.0165427062236105,-0.0169035482677107,-0.0160951105301808,-0.0158660397728851,99
400,13.3,121.441474534176,1.00326712549771,132.936346889121,1,95900,-0.0181885445942904,-0.0118305725490301,-0.0124662550685245,-0.0092550560542283,-0.0116925004729161,99
401,13.3333333333333,121.25897670389,1.00175945215709,131.997318266934,1,93099,-0.0208596214011809,-0.0053908997907859,-0.00570819598539093,-0.00171680026624486,-0.00510232348216143,99
402,13.3666666666667,121.12795157507,1.00067701137759,131.637534947655,1,92877,-0.0115411553029672,0.00250395713800788,0.00278956352078716,0.00551781087542221,0.00341829582329521,99
403,13.4,120.903522182777,0.998822927901192,130.202006763124,1,90195,-0.0100196423945702,0.0110655557129263,0.011790249413261,0.0115613982074793,0.0125824203595093,99
404,13.4333333333333,120.791139059534,0.997894494732511,129.668772231531,1,90712,-0.00246888611984408,0.0190561952345191,0.0197383211711937,0.0157606643486332,0.0206868398028911,99
405,13.4666666666667,120.764132232763,0.997671382640314,128.883251730238,1,92521,0.0184566069829111,0.0250373536993799,0.0251864118161903,0.0177661006601123,0.0261454155929371,99
406,13.5,120.52432096774,0.995690224560302,123.696268548679,1,92100,0.0112795301906052,0.0277699939025083,0.0271834121970736,0.0175482772503263,0.0279638150484389,99
407,13.5333333333333,120.811907225524,0.998066067239141,126.326227666538,1,95839,0.0103049543775997,0.0266380502485892,0.0255223433114549,0.0153773591090922,0.0260120373177908,99
408,13.5666666666667,120.638579903971,0.996634154424088,125.286170784953,1,94821,0.0157104476643082,0.0219172562075356,0.0207886706721665,0.0117471887266392,0.0210146001086655,99
409,13.6,121.186874734283,1.0011637945692,131.0061710933,1,95445,-0.00476688386506785,0.0147565781382444,0.0141999452660954,0.00728087053935871,0.0143030451564009,99
410,13.6333333333333,121.17623610266,1.00107590540771,130.690034971781,1,95029,-0.0070795903066192,0.00685706202961027,0.00727999382787923,0.0026356848022483,0.00742884592241038,99
411,13.6666666666667,121.235187779079,1.00156292418915,130.343555053705,1,95646,-0.0126740385378041,-3.86468696061869e-05,0.00145587130739395,-0.0016011629740358,0.00174098017466132,99
412,13.7,121.237129090953,1.00157896199165,130.246078287641,1,95494,-0.0156350414702504,-0.0046567880940258,-0.00230921481427192,-0.00497485983354479,-0.00192935744053781,99
413,13.7333333333333,121.139999608698,1.00077654406288,129.982163186526,1,95159,-0.0120763552720864,-0.00652407261710291,-0.00373996411017612,-0.0072076710000437,-0.00342368573997697,99
414,13.7666666666667,121.055899824226,1.00008176866307,129.396699121349,1,92642,-0.0162400896680688,-0.00602277451757163,-0.00326252302721182,-0.00820907615395648,-0.00320576578074507,99
415,13.8,121.075166638102,1.00024093801645,129.159012345679,1,93150,-0.0159328916858357,-0.0041737542926666,-0.00180317300949714,-0.00805457637756588,-0.00213696958072945,99
416,13.8333333333333,120.897627097395,0.998774226702623,128.11427065166,1,92313,-0.0089578135533146,-0.0022330263208726,-0.000436699178605555,-0.00695040026914905,-0.00115801686737374,99
417,13.8666666666667,120.797037133687,0.997943220622284,126.731274230514,1,93374,-0.00163568175360052,-0.00123704264767189,-2.47085067639095e-06,-0.005184401692201,-0.000971613435577222,99
418,13.9,120.933003487034,0.999066482448692,126.322962186709,1,95425,-0.00743287965248607,-0.00165037847578764,-0.000823862278750182,-0.00307996518294936,-0.00183640385181951,99
419,13.9333333333333,120.802605737085,0.997989224648048,125.692778845545,1,94694,-0.00168183271541933,-0.00324452167751185,-0.00263460368174101,-0.000949838810057792,-0.00352326303255983,99
420,13.9666666666667,120.937810132627,0.99910619169568,125.56413105561,1,96295,-0.0105195020353599,-0.00525570417295775,-0.00473799370365402,0.000927901956186035,-0.00545844009067043,99
421,14,120.971193874304,0.999381985535296,125.404879029921,1,97779,-0.00806405401951071,-0.00675428514075528,-0.00632995977294351,0.0023400613242677,-0.00696960708878692,99
422,14.0333333333333,120.955182070547,0.999249706868633,125.430910094218,1,97858,-0.00746594467578054,-0.00706383399498581,-0.0068478970035099,0.0031424821962691,-0.00756581297211866,99
423,14.0666666666667,120.996925878376,0.999594565906686,125.960854031576,1,97311,-0.00307127034836752,-0.0060478976463856,-0.00619884629670747,0.0032725404209117,-0.0071204283945818,99
424,14.1,120.851506606777,0.998393210478748,125.906671942576,1,96034,0.00251253309007815,-0.00414904977365295,-0.00477811456730463,0.00274849796051581,-0.00591321581041342,99
425,14.1333333333333,120.850426024498,0.998384283440589,125.658581979832,1,96355,0.000269043222589804,-0.00218117431787975,-0.00328419138607436,0.00166722572393827,-0.00451350935419442,99
426,14.1666666666667,120.661051487135,0.996819799408497,125.029534577965,1,95075,0.00818284174972872,-0.000980564518189148,-0.0024211144861371,0.000199526488666966,-0.00355491940226866,99
427,14.2,120.558297987606,0.995970919662077,124.144864201994,1,94049,0.00773306174575872,-0.00106785363619867,-0.0026167595752001,-0.0014308374062367,-0.00349591173442756,99
428,14.2333333333333,120.483182634107,0.995350367539541,124.911610730966,1,92070,0.00365954751607767,-0.00245054270556106,-0.00386374577393926,-0.00296839016816738,-0.00443825652616201,99
429,14.2666666666667,120.541900408488,0.995835453980932,123.754347353839,1,93601,0.00285601171383743,-0.00462468397847313,-0.00572708054399159,-0.00416278511916492,-0.00607416262796844,99
430,14.3,120.420680920056,0.994834020754105,123.173022773216,1,93165,0.00422313387004492,-0.00675088854549118,-0.00749406328679955,-0.00480727464239667,-0.00776547981317709,99
431,14.3333333333333,120.454212462712,0.995111035625204,123.409477173314,1,93122,0.0029718776429517,-0.00792374897552849,-0.00839878457665002,-0.00477593171506276,-0.00873335669090729,99
432,14.3666666666667,120.402607701442,0.994684712075524,123.975362474493,1,93110,0.0111232266181469,-0.00744479075550515,-0.00784747324464195,-0.00404777422526081,-0.00829466520708428,99.0140082776186
433,14.4,120.298910121284,0.993828032975033,123.509551175904,1,92397,0.00924304339996018,-0.00503301791637542,-0.00559056872877678,-0.00271949532673094,-0.00608817393763272,99.1413562559694
434,14.4333333333333,120.347503721096,0.994229480350309,124.924364755954,1,92025,0.0101723881256195,-0.000932024355240689,-0.00181104839077891,-0.000987223664848051,-0.00221654225234795,99.2687042343203
435,14.4666666666667,120.386682002114,0.994553144745271,124.119920660448,1,93270,0.012274766518471,0.00411673440463306,0.00288703577376939,0.000883229987458834,0.00272305668378298,99.3960522126711
436,14.5,120.186801105529,0.99290186429658,123.641787003289,1,93557,0.0345422304442047,0.00905018816927823,0.00759644878961615,0.00261300032047322,0.00776354592962455,99.523400191022
437,14.5333333333333,120.169425426054,0.992758318213435,122.226683109528,1,94874,0.0297212996199341,0.0127802274578435,0.0113202241395376,0.00395643775654886,0.011803821528701,99.6507481693728
438,14.5666666666667,120.018726100113,0.991513342556386,121.356357977308,1,95101,0.0349383596190531,0.0145189852919371,0.0132398030065911,0.00476106121381476,0.0139360680645795,99.7780961477237
439,14.6,120.100687280659,0.992190450260528,121.753281815029,1,94206,0.029848807358559,0.0140130389501238,0.0129664119283765,0.00498386242928829,0.0137304436511965,99.9054441260745
440,14.6333333333333,120.381672274733,0.994511757774241,123.425124956956,1,95833,0.0253820182351601,0.0116043350333772,0.0106914997568481,0.00470167453781183,0.0114105320320665,100.032792104425
441,14.6666666666667,120.410212515745,0.994747537895245,125.199910393324,1,95231,0.0329830058661118,0.00810994011533013,0.00716840929014056,0.00408240184490583,0.00781232627507939,100.160140082776
442,14.7,120.40138729214,0.994674629881312,126.349244907412,1,94271,0.031199824033628,0.00456959002479858,0.00350295465506722,0.00333613424671785,0.00412752060459058,100.287488061127
443,14.7333333333333,120.618790263117,0.996470665828689,125.45819984823,1,97077,0.019224087068872,0.0019306046489142,0.000796308125239906,0.00265987782156748,0.0014958752243346,100.414836039478
444,14.7666666666667,120.456338823597,0.995128602177162,125.09846046283,1,96306,0.025162372179,0.000747765452057761,-0.000248972268490762,0.00218652283529645,0.000591482353096317,100.542184017829
445,14.8,120.678684602282,0.996965472250617,126.528263312855,1,96686,0.0189708153419161,0.000988747626359771,0.000390715547211357,0.00194386729145272,0.00135814681465429,100.66953199618
446,14.8333333333333,120.488427095172,0.995393693721126,125.58485060569,1,95731,0.0247757262192216,0.00203189983712762,0.00202501467474454,0.00185660925984722,0.00303249628497143,100.79687997453
447,14.8666666666667,120.357725882974,0.994313928921134,124.440624082777,1,94261,0.0259179580134545,0.00289059374668537,0.00350484421125178,0.00175984717792485,0.00443792044910321,100.924227952881
448,14.9,120.312934619399,0.993943893869879,124.884159213773,1,93476,0.0313595443588253,0.00260215872032195,0.00368640185133243,0.00145381876362083,0.0044698125709402,101.051575931232
449,14.9333333333333,120.513898360829,0.99560412004851,125.689189236274,1,95667,0.0250962790353291,0.000628384852373294,0.00191594080948549,0.00075833973185061,0.00254673599878528,101.178923909583
450,14.9666666666667,120.5692086477,0.996061056138367,126.730190418755,1,96174,0.0284345745731627,-0.00291156267488702,-0.00167946852686348,-0.000422008414219137,-0.00113758094139637,101.306271887934
451,15,121.032526436039,0.999888673576987,129.655980166724,1,98286,0.0107300625038036,-0.0072872806908022,-0.00623267362560278,-0.00206641261257721,-0.00570083383339026,101.433619866285
452,15.0333333333333,120.950746237806,0.999213061026011,129.586397194909,1,99058,0.0143517292945363,-0.0114594790912394,-0.0104951618478492,-0.0040137286477738,-0.00992606889932361,101.560967844635
453,15.0666666666667,121.051611967645,1.00004634529916,129.824614329334,1,100107,0.00815272544647305,-0.014488578341551,-0.0133492662054599,-0.0059958199004755,-0.0127623850543276,101.688315822986
454,15.1,120.906003635633,0.998843427982266,129.067004578266,1,99237,0.012281738262073,-0.0158549167328263,-0.0142366235176909,-0.00767529176097971,-0.0137065108110523,101.815663801337
455,15.1333333333333,120.842600318335,0.998319632762085,128.705718013976,1,97837,0.0123185343461247,-0.0155579529051839,-0.0133099756888646,-0.00872227696631522,-0.0129344973878714,101.943011779688
456,15.1666666666667,120.769671129212,0.997717141247412,128.34956515831,1,98120,0.0162437244340601,-0.0139864261317867,-0.011253855110689,-0.00887906976083921,-0.0111043079534969,102.070359758039
457,15.2,120.850199399167,0.998382411215754,128.830262249133,1,99422,0.0130480986225376,-0.0116608761547689,-0.00888100951489055,-0.00802327539698207,-0.00896660676083486,102.19770773639
458,15.2333333333333,120.780145617877,0.997803674371076,128.714313259649,1,96810,0.0149148874414844,-0.00898824989786162,-0.00671524454342155,-0.006196332924789,-0.00696971696494984,102.325055714741
459,15.2666666666667,120.805424938435,0.998012514978189,128.805911757571,1,97557,0.0222193516438081,-0.00613268354447786,-0.0047693406825808,-0.00360459046667171,-0.00507383476086143,102.452403693091
460,15.3,120.885972207091,0.998677941900925,129.07689608637,1,98800,0.0205701840783332,-0.00303635762123588,-0.00262375862733304,-0.000585384636368744,-0.00286298241684766,102.579751671442
461,15.3333333333333,120.72759533849,0.997369539591781,128.355891335251,1,98014,0.0339378616776349,0.000437817571015507,0.000240322886425179,0.00245898510045294,0.000115934015010205,102.707099649793
462,15.3666666666667,120.752227168101,0.997573031067688,128.575800905594,1,97910,0.0330931518133517,0.00430848577831001,0.00402957064490885,0.00512780069948388,0.00396192999581358,102.834447628144
463,15.4,120.847538780217,0.998360430985882,128.802631266877,1,98381,0.0253152592329107,0.00831179848941974,0.00837082222553653,0.00709856750346489,0.00821361399553922,102.961795606495
464,15.4333333333333,120.628209802837,0.996548483679425,128.282980278074,1,97624,0.033981468609777,0.0118657350424237,0.0123475851047155,0.0081778048833858,0.0119427258973389,103
465,15.4666666666667,120.618864099775,0.996471275817098,128.198231155643,1,98407,0.0411603894753392,0.0142246614500883,0.0148536484416001,0.00832307497784907,0.0141274227732972,103
466,15.5,120.529597149071,0.995733812793218,127.816607443552,1,98779,0.0464488667804828,0.0147942077511921,0.0151085654041088,0.00764026622920159,0.0141312841439994,103
467,15.5333333333333,120.626579861087,0.996535018205784,127.924898355359,1,98218,0.0424668558741459,0.013460624839247,0.0130764850675754,0.00634474064470678,0.0120364251648811,103
468,15.5666666666667,120.738961380487,0.997463438124602,128.6869181937,1,99976,0.0310306442774575,0.0107378895470192,0.00955637601571379,0.00470849597792162,0.00865863371829085,103
469,15.6,120.752308658437,0.997573704285593,128.99137227814,1,101340,0.0348145803773172,0.00761216771654362,0.00586844281251712,0.00300367935958984,0.00521986780261037,103
470,15.6333333333333,120.851118499744,0.99839000420157,130.015760410576,1,102620,0.0237203424821031,0.00513135296889886,0.00327202913810797,0.00144510572113419,0.00281823444530574,103
471,15.6666666666667,120.80748506057,0.998029534310508,129.075440895818,1,101479,0.0244583681654635,0.00393978712080309,0.00239963229250245,0.00016691179653358,0.00196801328077823,103
472,15.7,120.837755939006,0.998279611784546,129.914703386638,1,101743,0.0203756702525526,0.00400026180353078,0.00299349415388372,-0.000794784201522446,0.00240219282196774,103
473,15.7333333333333,120.518083235987,0.995638692649727,128.372026593945,1,100474,0.0371818332325069,0.00465148957911139,0.00407913930005842,-0.00147495768741628,0.00326157745680387,103
474,15.7666666666667,120.580185041008,0.996151735657899,128.82477890483,1,98487,0.0267546275714547,0.00496930821584253,0.00448337764123942,-0.00195899375408492,0.00353007291291505,103
475,15.8,120.571526992049,0.996080208727546,128.954717887635,1,99907,0.0273935267186456,0.00423589843951251,0.00342581067970151,-0.00233054564368727,0.00253750192187475,103
476,15.8333333333333,120.670157999722,0.996895031241287,129.425735756012,1,99229,0.0229065040493266,0.00227180455211188,0.000881302474665811,-0.00265034528493404,0.000243859185820094,103
477,15.8666666666667,120.682330976083,0.996995596118729,129.652076216657,1,98946,0.0173664066069241,-0.000524015626167087,-0.00245789647553244,-0.00292983804707774,-0.00278398112020021,103
478,15.9,120.674813461462,0.996933491509787,129.744680851064,1,97854,0.0182127841452839,-0.00341558170338013,-0.00557387361245015,-0.00313425817653136,-0.00568922936811285,103
479,15.9333333333333,120.763608313795,0.997667054377016,130.332485961196,1,99130,0.0109945625044356,-0.00570153116281633,-0.00763971374630481,-0.00320289022230787,-0.00774204307081983,103
480,15.9666666666667,120.776036299143,0.997769725965809,130.728603129407,1,99742,0.00912535259105907,-0.00701739004292739,-0.00838232759709045,-0.00307501963972294,-0.0086390666806836,103
481,16,120.658688374131,0.996800276971046,129.171578039628,1,98954,0.0143187802169122,-0.00742486357482712,-0.00811599626764127,-0.00272316710722167,-0.00855538567406888,103
482,16.0333333333333,120.696569829945,0.997113227875416,128.739926739927,1,101010,0.0166264187315686,-0.00727060484085845,-0.00746414208632214,-0.00217337504424304,-0.0079494355359676,103
483,16.0666666666667,120.733840078448,0.997421129399387,128.524171772684,1,101351,0.0161865763248699,-0.00692669851860471,-0.00695859175095881,-0.00150839375045631,-0.00726335360341973,103
484,16.1,120.794232892616,0.99792005388382,128.650273439814,1,101302,0.0129093720255904,-0.00658406279048939,-0.006759578629904,-0.000853088402937398,-0.00669982710722648,103
485,16.1333333333333,120.793572256739,0.997914596158121,127.794468306909,1,101042,0.0118375814149059,-0.00621948093828937,-0.00664885547690553,-0.000341099061192444,-0.00618949960868372,103
486,16.1666666666667,120.83776085599,0.998279652405337,127.628798401926,1,100788,0.0114674250800175,-0.00573009481728189,-0.00627149663174272,-7.58471426794469e-05,-0.00554348643339942,103
487,16.2,120.760503743777,0.997641406524414,127.71236192152,1,98887,0.0129781848196049,-0.00511319960875239,-0.00544865043446413,-9.40861391622456e-05,-0.00466580308265999,103
488,16.2333333333333,120.68271789553,0.99699879258487,126.759400218848,1,97480,0.0140021983119665,-0.00454233871412947,-0.00434629287766194,-0.000346832092599043,-0.00367742797836505,103
489,16.2666666666667,120.502789374256,0.995512345133322,125.530851558865,1,96705,0.0213619441099371,-0.00426908044073668,-0.00338381690019762,-0.000700726644205812,-0.00285861503048542,103
490,16.3,120.377705439282,0.994478986469249,124.583953863413,1,95080,0.0259474714223762,-0.00441035820998402,-0.00293768491339306,-0.000967396366751421,-0.00244421524707242,103
491,16.3333333333333,120.572277053496,0.996086405226676,125.101352723867,1,96817,0.0142242414394609,-0.00477491772829235,-0.00303223750475624,-0.000952356504181543,-0.00240419394309536,103
492,16.3666666666667,120.650985985078,0.996736645054896,125.713667418187,1,97580,0.0170334871440323,-0.00487007137429365,-0.00322669818946686,-0.000507484870089897,-0.00235688009771867,103
493,16.4,120.749774362896,0.997552767654083,126.404527733475,1,97812,0.0170968049806475,-0.00411534073132227,-0.00279356164213864,0.000412102464195652,-0.00170907104678971,103
494,16.4333333333333,120.691847227656,0.997074212937226,125.750275479265,1,97406,0.0220013988154992,-0.00215355931275724,-0.00110874003769912,0.00172520600369543,4.49108370264634e-05,103
495,16.4666666666667,120.534840995694,0.995777133898697,124.75458279944,1,95993,0.0230806561153818,0.000913590175420872,0.001956789811772,0.00322067428644945,0.00299733517845397,103
496,16.5,120.302208458892,0.993855281604082,123.925884794316,1,93647,0.0356232078837087,0.00449573919704716,0.0058651263622433,0.0045984891811588,0.00667819395370725,103
497,16.5333333333333,120.228489224161,0.993246263268246,123.511292738824,1,93231,0.0342270136821203,0.00770801394132324,0.00956791451954845,0.00552764728433307,0.0101625185115175,103
498,16.5666666666667,120.055754194418,0.991819243566554,122.805426441171,1,91650,0.0366326184931811,0.00969678544363298,0.0119276225802552,0.00573144336841107,0.0124243003510036,103
499,16.6,120.052779583042,0.991794669344144,122.713580707588,1,91117,0.036375842435056,0.00995206513478695,0.0122025026465423,0.00505591897115433,0.0127554408409674,103
500,16.6333333333333,119.894056304212,0.990483405228556,121.819286137739,1,89401,0.0350664065908997,0.00848263541940892,0.010362195655497,0.00352502696243958,0.0110670742976614,103
501,16.6666666666667,119.929567829175,0.990776777371048,121.855441081777,1,90074,0.0372804562295923,0.00579765948319635,0.00708736723199325,0.00135404897997548,0.00791963427175758,103
502,16.7,119.899971564271,0.990532273096629,121.273195496749,1,90542,0.0337356759799077,0.00271375373801508,0.00346356941980151,-0.00108148273050275,0.00428014353968616,103
503,16.7333333333333,119.965041968587,0.991069840659467,121.403466966735,1,90646,0.0245049503992161,6.61885091310551e-05,0.000526341932081375,-0.00331579484052765,0.00113110906660695,103
504,16.7666666666667,119.908956233795,0.99060649834464,121.179271212641,1,90351,0.0250356777444094,-0.00156231043840377,-0.00112112167593794,-0.00489009438368338,-0.000878753240202039,103
505,16.8,119.893158673801,0.990475989614687,121.372723619054,1,90403,0.0254771592996828,-0.00198527390017146,-0.00144542558079181,-0.00545921708957253,-0.00159172646005196,103
506,16.8333333333333,119.799582765482,0.989702928904455,121.531555310142,1,90550,0.0300701323713426,-0.00137497285746488,-0.000839393308031756,-0.00487439233795198,-0.00125729250088358,103
507,16.8666666666667,119.77667874041,0.989513711378201,121.399003146986,1,90351,0.0285629222773007,-8.42287070105891e-05,0.000188136126199867,-0.00323402472709606,-0.000303655551905278,103
508,16.9,119.776779045453,0.989514540030464,121.891173788984,1,90303,0.0338069221134174,0.00155287509246079,0.00129300882541415,-0.000874072997000027,0.000897884406598049,103
509,16.9333333333333,119.781948904768,0.989557249902968,121.881408802805,1,90403,0.0284492591395811,0.00331452433394707,0.00238447942617304,0.0016865934006698,0.00212785089143137,103
510,16.9666666666667,119.819361843642,0.989866330238036,122.904553867026,1,90414,0.0336349312607922,0.00502857943753171,0.00348880729169505,0.00385679059890129,0.00326216821270161,103
511,17,119.93072917172,0.990786371595768,122.976113690852,1,90233,0.0240288137832829,0.00641925293845047,0.00450274317592081,0.00509091663208049,0.00411263955846679,103
512,17.0333333333333,119.884646680821,0.990405669299802,122.729696537958,1,89841,0.0234363778229691,0.00700929871419393,0.00502897113849341,0.00501894778754658,0.00432587115832716,103
513,17.0666666666667,119.858679884487,0.990191149233937,123.227642276423,1,89380,0.0305673154946104,0.00620805606041905,0.00444146596160061,0.00353131052177571,0.00342111645621203,103
514,17.1,119.849446936584,0.990114872878285,123.585911825815,1,89361,0.0358494645325913,0.00359471889390831,0.00218529851886651,0.000820893298758274,0.00100399146260662,103
515,17.1333333333333,119.814950420459,0.989829886050634,122.966002958243,1,87890,0.0247712854896256,-0.000750061175557339,-0.00184212717198451,-0.0026429114446061,-0.00295527995590809,103
516,17.1666666666667,119.387097877213,0.986295258421597,120.42823479006,1,84024,0.00197857255753497,-0.00608318173674459,-0.00705344259438407,-0.00619878276619538,-0.00793043509773707,103
517,17.2,119.236844509782,0.985053966971398,120.389997600549,1,80574,-0.00661319344082489,-0.0111433663866607,-0.0122394810611929,-0.00912114483295604,-0.0128692303407099,103
518,17.2333333333333,119.311203253093,0.98566826849354,122.550432336789,1,79876,0.0113866954106832,-0.0145531621639274,-0.0159445594313568,-0.0107636053636761,-0.0164660766323329,103
519,17.2666666666667,119.346247308986,0.985957778723521,121.750897569531,1,80588,-0.00357069593255543,-0.015292307598924,-0.0169886994859993,-0.010698301634942,-0.0175954957730937,103
520,17.3,119.26354067877,0.985274512619627,121.599804689166,1,78166,-0.0109243574732507,-0.0130422872839555,-0.0149042411252838,-0.00879700954633084,-0.0157090551242252,103
521,17.3333333333333,119.097411107344,0.983902062736057,121.62103141128,1,77053,-0.00679265285911068,-0.00827840233399753,-0.0101005261530741,-0.00527352157209091,-0.0110600069813055,103
522,17.3666666666667,119.160325361536,0.984421817648439,122.310242057036,1,78067,0.00566949990489496,-0.0020884235942521,-0.00370153543530286,-0.000642458980313106,-0.00463650454824544,103
523,17.4,119.202504811484,0.98477027566632,122.774820250069,1,79045,0.015817145166376,0.00419791956352599,0.00285099343191786,0.00437315406168886,0.00214421601068143,103
524,17.4333333333333,121.3574245452,1.00257276147453,132.509207787157,1,101997,0.0101525864970644,0.00940196239756851,0.00824422583434489,0.00897443334630967,0.00786447157983999,103
525,17.4666666666667,121.509121873362,1.00382598194929,132.717081360338,1,102847,0.00243894401367983,0.0127443204248301,0.011612486393339,0.0124344021026983,0.0114919739650848,103
526,17.5,121.581184676998,1.00442131597448,133.013131019326,1,103140,0.000169194678287798,0.0138863825611845,0.0126424160870853,0.0142247828755036,0.0125921515422653,103
527,17.5333333333333,121.442351407389,1.00327436962968,132.527478044318,1,100923,0.00584134689859761,0.0128408106298493,0.0114970472240399,0.0141046506954179,0.0113350941338753,103
528,17.5666666666667,121.535304955485,1.00404228882171,132.470165193706,1,102062,-0.00118264675705859,0.00988156721104922,0.00865853084084471,0.0121470368873022,0.00832998264392481,103
529,17.6,121.421099593939,1.00309880155565,132.154506550534,1,101493,0.00162690917503117,0.00551813241641679,0.00477901589500655,0.00871562341391203,0.00439483357241202,103
530,17.6333333333333,121.358519170215,1.00258180452425,130.672074729597,1,99666,-0.0170507435593432,0.000487969715760092,0.000570716990790205,0.00437638956787536,0.000327393239427441,103
531,17.6666666666667,121.604046583863,1.00461018554867,132.426855935044,1,100457,-0.0213692343046952,-0.00432564114796513,-0.00328385046592345,-0.000201399186037115,-0.0032308985027175,103
532,17.7,121.831633261666,1.00649035237731,134.246656945073,1,99435,-0.0347872161639824,-0.00808726544297924,-0.00622600925542754,-0.00437501639758873,-0.00586495137577517,103
533,17.7333333333333,121.644082734562,1.0049409370813,132.032147765635,1,99924,-0.032158004838156,-0.0102473905263472,-0.00791278374240335,-0.00761980275156385,-0.00736703733095744,103
534,17.7666666666667,121.762094354224,1.00591586907128,133.717281845537,1,99700,-0.036538186644572,-0.0106976160622322,-0.00826937295058331,-0.00960834302157349,-0.00770620739989222,103
535,17.8,121.778837903083,1.00605419291986,133.70470401975,1,99376,-0.0372135712744925,-0.00974892415577517,-0.00746754107901799,-0.0102310141408877,-0.00698017777415921,103
536,17.8333333333333,121.5834424502,1.00443996816591,133.239660350424,1,99004,-0.0288562815376121,-0.00794120145506795,-0.00583189658131657,-0.00958531982746505,-0.00538680128189813,103
537,17.8666666666667,121.535615879627,1.00404485746616,132.71926770769,1,98813,-0.0336928233423577,-0.0057922367684745,-0.00371895164008567,-0.00793154633866561,-0.00320125735913099,103
538,17.9,121.536568463025,1.00405272706435,132.692599933928,1,98882,-0.034049313320804,-0.00362568147738918,-0.00142898526045277,-0.00562411778390561,-0.000745309594907924,103
539,17.9333333333333,121.319509250572,1.00225953101682,131.646353492062,1,94963,-0.0377268334434553,-0.0015579635145001,0.000815510112077614,-0.0030503520242251,0.00164810121818491,103
540,17.9666666666667,121.34338321602,1.00245676153285,132.066878514833,1,95666,-0.0380079039342487,0.000386484724151529,0.00284024269616837,-0.000569011949986766,0.0036914834936643,103
541,18,121.064929603082,1.00015636657381,131.0266346314,1,94063,-0.028357855476,0.0021445054859617,0.00448843237874026,0.00152941798933323,0.00519884641013366,103
542,18.0333333333333,121.190863914432,1.00119675047094,131.678924061361,1,94392,-0.0317118110829142,0.00357471767889517,0.00563165314736638,0.00304135692904081,0.00612296887129186,103
543,18.0666666666667,120.975370506595,0.999416490039541,130.16992106653,1,93412,-0.0296325949378025,0.0045315858308356,0.00622120069645,0.00386072131672297,0.00655936194304978,103
544,18.1,120.890226222911,0.998713085695417,130.197072072072,1,93240,-0.0257748059441396,0.00498187225574361,0.00633418100354668,0.00396950297588772,0.00669332730530284,103
545,18.1333333333333,120.892664007145,0.998733225015941,129.981508526344,1,92439,-0.0318183438960968,0.00505838868503559,0.00615954570523469,0.00342936825885537,0.00671262538596484,103
546,18.1666666666667,120.977101380227,0.999430789343956,130.290108928681,1,92201,-0.0325971056756909,0.00499207753445059,0.00590681083777625,0.00237244492432728,0.00671487241934807,103
547,18.2,120.976783546885,0.999428163620376,129.959200983004,1,91963,-0.0368017262065847,0.0049559410725521,0.00568007081221928,0.000985344404433584,0.00664914352147245,103
548,18.2333333333333,120.862596090072,0.998484824271077,129.946826082676,1,91417,-0.0308397135555465,0.00492854294305027,0.00539884551681675,-0.000499941049487511,0.00633847468933817,103
549,18.2666666666667,120.88855972966,0.998699318258054,130.154633818426,1,91735,-0.0284566097194854,0.0046845336327474,0.00483248249429175,-0.00183034827433593,0.0055697455555752,103
550,18.3,120.899289165495,0.998787957582385,130.177758040286,1,91197,-0.0321305123466193,0.00393993920452279,0.00374915353329001,-0.00275741624759157,0.00422855954384955,103
551,18.3333333333333,120.834157899638,0.998249887222758,129.718473816119,1,90972,-0.0305300377281896,0.00257548429519653,0.00210374585796399,-0.00307353770783783,0.00240719290374748,103
552,18.3666666666667,120.893127195963,0.998737051567915,130.000883825984,1,91647,-0.0333501980532986,0.000802969104820969,0.000151827926578548,-0.00265391305013456,0.000426765725051692,103
553,18.4,120.962361416409,0.999309017756561,130.45660780585,1,92025,-0.0344876439808903,-0.000838196236211847,-0.00159342213147163,-0.00148888079134066,-0.00124574533889934,103
554,18.4333333333333,120.925719260173,0.999006305105054,130.534674396304,1,91768,-0.0309875253047971,-0.00168113448875687,-0.00256177556751194,0.00029429494755754,-0.00216356140409408,103
555,18.4666666666667,121.105778872826,1.0004938355447,130.793557319683,1,92208,-0.041599547308671,-0.00125005117109398,-0.00239492798634752,0.00243150126822381,-0.00208380050313955,103
556,18.5,120.817761470052,0.998114431038263,130.029053225948,1,91384,-0.0292403183818384,0.00045531262146069,-0.0011498158225993,0.0045606142956677,-0.00107969983695391,103
557,18.5333333333333,120.829743503129,0.998213418471747,130.128359463509,1,91210,-0.0330234820971556,0.0028648297790775,0.000670707737544742,0.00626812356074537,0.000439502133546949,103
558,18.5666666666667,121.001705621189,0.999634052901149,131.878288355044,1,93119,-0.0263173286239913,0.00500648715585168,0.00228046645146056,0.00717740898522274,0.00183914558028576,103
559,18.6,120.666487297725,0.99686470639012,130.343256223456,1,92379,-0.0149815610143693,0.00587666812089288,0.00288879761770992,0.00702088140713415,0.00242446073680941,103
560,18.6333333333333,120.607674082842,0.996378831484009,129.724034605997,1,91776,-0.0141287350514636,0.00483424884251177,0.00196597260812538,0.00571082464190158,0.001636087380446,103
561,18.6666666666667,120.84067174923,0.998303700231706,129.934692609847,1,91225,-0.0348305402004683,0.0018218782385338,-0.000611777432309104,0.00337223953030835,-0.000796764222172069,103
562,18.7,121.120180542147,1.00061281237232,131.462146048018,1,93645,-0.0394345726441747,-0.00267417184614585,-0.00456382515013653,0.0003400810447339,-0.00475469981835725,103
563,18.7333333333333,121.12042977931,1.00061487140078,131.281778771694,1,92116,-0.0426539033642088,-0.00784611997881944,-0.00929806028324604,-0.00289931975018041,-0.00970963851202617,103
564,18.7666666666667,121.027872173546,0.999850223215853,130.667909862928,1,93576,-0.034531440219896,-0.0127941498507306,-0.0140169745431157,-0.00578897472601155,-0.0147742685199461,103
565,18.8,121.10957225916,1.00052517393068,131.201134478514,1,93435,-0.0378402466617747,-0.0166471458636363,-0.0178068996008907,-0.00781609168955903,-0.0188557518609886,103
566,18.8333333333333,121.192294272228,1.00120856711727,131.734985409269,1,93781,-0.0410441053343544,-0.0186085884521345,-0.0197500160205093,-0.0086107775124986,-0.0208879510605218,103
567,18.8666666666667,121.175321104226,1.00106834631101,131.465653718642,1,92601,-0.0436862006784993,-0.0180536253618748,-0.0191174464750923,-0.00802770162826983,-0.0201299603526188,103
568,18.9,121.512947877655,1.00385758980273,133.125450612833,1,95703,-0.0509475128295751,-0.0147467905928295,-0.015638430870145,-0.00617958452425982,-0.0164387630807895,103
569,18.9333333333333,121.553311777475,1.00419104897639,133.154356657742,1,96737,-0.0418658157203633,-0.00909357878044463,-0.00973733920465005,-0.00341558836267484,-0.010406463186171,103
570,18.9666666666667,121.637958718117,1.0048903446095,133.444388775812,1,95805,-0.0468896849644196,-0.00222350252066968,-0.0025737551208416,-0.000261610335246884,-0.0032870505246715,103
571,19,120.735693401718,0.997436440299698,127.979504593609,1,90996,-0.00905749945192058,0.00425730601963598,0.00422418880446279,0.00269973013258259,0.00334621984647773,103
572,19.0333333333333,120.955229939019,0.999250102325494,130.557286450799,1,89870,-0.023636956428617,0.00881240595236885,0.00908819388760908,0.00492367449856367,0.00806410653877648,103
573,19.0666666666667,120.849120311735,0.998373496527013,129.177646534433,1,89740,-0.014147938496571,0.0105730690026032,0.0110896337148949,0.0060368082671194,0.0100774008646538,103
574,19.1,121.189491068163,1.00118540894585,132.329702814495,1,88968,-0.0314101600650991,0.00966918830715148,0.0102955473162168,0.00588017191928296,0.00947446991823805,103
575,19.1333333333333,121.191455039293,1.00120163394376,132.699006780199,1,88198,-0.0324585734838938,0.00711126414855247,0.00771444023246873,0.00455362099323006,0.00717654061778469,103
576,19.1666666666667,121.37060038173,1.00268161130275,133.80021652294,1,89290,-0.0385679429427839,0.0042939883035442,0.00484525465039029,0.00236927189718896,0.00454050137474834,103
577,19.2,121.256121667163,1.00173586577936,132.924740983806,1,87768,-0.0402089276975115,0.00239023187924602,0.00304093074909955,-0.000212346040863462,0.00283055027436908,103
578,19.2333333333333,121.212914347869,1.00137891620184,132.428865830153,1,87506,-0.0397872164068485,0.00193440236743077,0.00298473108015317,-0.0026862038131433,0.0027443040460829,103
579,19.2666666666667,121.358036604833,1.00257781789624,132.924056627004,1,87991,-0.0409533724224227,0.00276109449279838,0.00450994086176358,-0.00460268733277988,0.00421455585353091,103
580,19.3,121.372259441219,1.00269531732741,133.022284091165,1,88718,-0.0400045471089028,0.00426461852212022,0.00681437730667722,-0.00564952224192375,0.00654940507283057,103
581,19.3333333333333,121.292672236897,1.00203782180528,132.016918204685,1,87992,-0.0424049174638403,0.00579271634899992,0.00892878507912239,-0.00570005450533664,0.00882675811111414,103
582,19.3666666666667,121.312473651792,1.00220140766982,131.920833286168,1,88341,-0.0470026927241434,0.00695521687045667,0.0101903887221653,-0.00481650175049758,0.0103450561858106,103
583,19.4,121.440059803075,1.00325543794854,132.128644555709,1,89277,-0.0512269606536888,0.00771447181464109,0.0104960690286047,-0.00321559039939062,0.0109099373127016,103
584,19.4333333333333,121.296652703319,1.00207070572011,131.560058523421,1,87942,-0.052468126436731,0.00826472671749396,0.0102399000299401,-0.00120550987846339,0.0108331736693159,103
585,19.4666666666667,121.37105621707,1.00268537710527,131.874104784241,1,89969,-0.0492945648242511,0.0088153994281281,0.0100022387637857,0.000887837142844481,0.0106658653580878,103
586,19.5,121.206257116558,1.00132391867034,130.918157138596,1,88283,-0.0505117735690228,0.00941363183291235,0.0101703862472108,0.00278549674667297,0.0108192862365127,103
587,19.5333333333333,121.082243685193,1.00029940378129,130.957172871799,1,86783,-0.0478517893303612,0.00988440723013066,0.0106871237180353,0.00430205091530454,0.0112866033613254,103.007010834927
588,19.5666666666667,121.059127171648,1.00010843081934,131.075202581739,1,84904,-0.0643665891446714,0.00989051872893614,0.0110478819577387,0.005353409459703,0.0116011534254632,103.038878266412
589,19.6,121.010940324609,0.999710343759697,131.211819106412,1,84558,-0.0629042836938734,0.00907157675763451,0.010543694447682,0.00594956463926282,0.0110736931951997,103.070745697897
590,19.6333333333333,120.996556245598,0.999591512251289,130.429240268,1,86219,-0.0594928971698949,0.00721271523630898,0.00863134230610207,0.00615055074435618,0.00916412478005919,103.102613129382
591,19.6666666666667,121.039669176133,0.999947682052877,131.347541640635,1,84833,-0.0635355208723811,0.00438666611880158,0.0052502969262156,0.00602877784962184,0.00581524232702868,103.134480560867
592,19.7,121.252084227223,1.00170251118795,131.329037045282,1,89845,-0.0669362982986086,0.000997873699361811,0.000923714625216392,0.00563220762364368,0.00155364359460181,103.166347992352
593,19.7333333333333,121.436947273334,1.00322972433811,132.457280569349,1,91426,-0.0734401076924729,-0.0023296717974699,-0.00342430675036199,0.00496520008578402,-0.00270054632475329,103.198215423837
594,19.7666666666667,121.784502650584,1.00610099122302,133.460660279145,1,94455,-0.0859219708493013,-0.00500732227043562,-0.0068667446413173,0.00399356971720217,-0.0060394220483964,103.230082855322
595,19.8,121.9535942371,1.00749791126702,134.139709243227,1,97722,-0.0871808910324479,-0.00676597370867211,-0.00890406905596779,0.00267021259010533,-0.00799692162602481,103.261950286807
596,19.8333333333333,122.184768109267,1.00940771306339,135.711513579204,1,101761,-0.0723235676384189,-0.00780820533026198,-0.00971366750694364,0.000971765296129145,-0.0087857051851899,103.293817718292
597,19.8666666666667,122.718465321228,1.01381675758285,139.655568066055,1,105689,-0.0767800752342573,-0.00872587150380826,-0.0100819298598912,-0.00106800370173123,-0.00921593058597426,103.325685149777
598,19.9,122.973328565502,1.01592226491022,141.168580567354,1,108069,-0.0824360361985774,-0.0102136130723401,-0.0110326932885494,-0.00332951027922831,-0.0103051011086168,103.357552581262
599,19.9333333333333,123.113326661688,1.01707883426244,142.113505019535,1,108609,-0.0885153346547636,-0.012717000460889,-0.0133128576004419,-0.00561290486106297,-0.0127630876793272,103.389420012747
600,19.9666666666667,123.050596745007,1.0165606022216,141.970968561409,1,107596,-0.0864028854924581,-0.0161698934087776,-0.0169678936860207,-0.00765841597490093,-0.0165737940387559,103.421287444232
601,20,122.969596912043,1.01589143651939,141.679881357835,1,106876,-0.082299394106093,-0.0199202973786576,-0.0212066246915536,-0.00919369936177377,-0.0208905301204328,103.453154875717
602,20.0333333333333,122.973804375514,1.01592619572994,141.497136677794,1,106345,-0.0848277340839969,-0.0228765796672991,-0.0246346263625098,-0.00998833147010489,-0.0243036702067282,103.485022307202
603,20.0666666666667,122.9398697057,1.01564585049558,141.204274082849,1,106362,-0.0851492507550078,-0.0238471185959449,-0.0257788966168527,-0.00990281744479637,-0.0253827424246451,103.516889738687
604,20.1,122.951858204469,1.01574489134423,141.775353646645,1,105284,-0.0872444517314821,-0.0219814970086396,-0.0236949937494595,-0.00892363895360512,-0.0232695318562145,103.548757170172
605,20.1333333333333,122.618009097955,1.01298685637531,140.047446994873,1,103512,-0.0681883930940725,-0.0171569295016508,-0.0183980397442202,-0.00716276451971259,-0.0180506997989834,103.580624601657
606,20.1666666666667,122.615627915869,1.01296718466336,139.826332051568,1,103243,-0.0692732134001335,-0.0101347841479478,-0.0109203240322767,-0.00484353048351809,-0.0107679195223483,103.612492033142
607,20.2,122.261323040282,1.01004015799933,137.122211577939,1,102298,-0.0604296047859654,-0.00237698245801699,-0.0029533878559677,-0.00224472268924522,-0.00303648008690759,103.644359464627
608,20.2333333333333,121.392289644711,1.00286079328822,132.348644095131,1,97143,-0.0358815454208705,0.00444930300044198,0.00378322791147819,0.000350317821148062,0.0035363826834322,103.676226896112
609,20.2666666666667,121.30123115682,1.00210852979875,131.00104316961,1,98418,-0.022996929752896,0.00909284202405662,0.00817623983013547,0.00270955793573163,0.00790848757772615,103.708094327597
610,20.3,121.266075233579,1.00181809539659,130.520325871158,1,97380,-0.0277389952659952,0.0111846830233817,0.0100793018719452,0.00468953627755001,0.00990196192909303,103.739961759082
611,20.3333333333333,121.301964105068,1.00211458492024,130.652997070801,1,97979,-0.0274261023046867,0.0113146484107925,0.0102504975549442,0.00624545853342224,0.0101520427179673,103.771829190567
612,20.3666666666667,121.30531989818,1.00214230820771,131.806169247289,1,96230,-0.0326446490179095,0.0106775308379309,0.00991943499695711,0.00740876745919183,0.00975180774114355,103.803696622052
613,20.4,121.210852411117,1.00136188187839,130.601795484188,1,98395,-0.0201280578650014,0.010482675960216,0.0102091602836807,0.00825426072252405,0.0097789338285563,103.835564053537
614,20.4333333333333,121.109054815858,1.00052089916495,130.237235927399,1,98584,-0.00929958879683301,0.0114355072927691,0.0116866991481994,0.00884569847319575,0.0108874411648936,103.867431485022
615,20.4666666666667,121.184297543632,1.00114250356738,130.865802361261,1,98422,-0.00926874250417598,0.0135228886015019,0.0142198392788648,0.00919810643917649,0.0131212234367702,103.899298916507
616,20.5,120.840095401693,0.998298938839118,128.427411385013,1,96466,0.00039432849325971,0.0161380887456292,0.0171428597547657,0.00925802238391377,0.0159678325616049,103.931166347992
617,20.5333333333333,120.83118599291,0.998225335344315,127.606492119264,1,97051,0.00298224642136535,0.0184068057268412,0.0195870926274039,0.00890592466139023,0.0185818643615192,103.963033779477
618,20.5666666666667,120.777586037677,0.997782528854855,127.690043885774,1,97374,0.00595140409869588,0.0195182329976012,0.0207906371109515,0.00799513087406702,0.0200754539718038,103.994901210962
619,20.6,120.799526640119,0.997963787236544,128.018416911673,1,96596,0.00780952325730189,0.0189262918768556,0.0202695292524226,0.00640067007507118,0.0197647469211266,104
620,20.6333333333333,121.082643993919,1.00030271086058,131.245153866478,1,95884,-0.00286873768075679,0.0164035138473696,0.017848861194888,0.00407452575883914,0.0173295602237778,104
621,20.6666666666667,120.984102623406,0.99948862886827,130.974703034103,1,95690,0.00423879038780006,0.0120240397581818,0.0136347559806829,0.00109455183167949,0.0128858151114823,104
622,20.7,121.018389709385,0.999771885526048,130.860349127182,1,96240,0.00170253717388302,0.00616397358395711,0.0080067427020195,-0.00232553174175638,0.00696876866402844,104
623,20.7333333333333,121.017151495841,0.999761656245251,130.447848225451,1,96494,-0.0016223468177321,-0.00046682167833682,0.00163760652115485,-0.00584445914480916,0.000456257669573236,104
624,20.7666666666667,121.014884492032,0.999742927796809,130.893203012294,1,96582,0.00226198615526041,-0.0068428967306875,-0.0045304966315415,-0.00904413782622324,-0.00559004401998249,104
625,20.8,121.292681518986,1.00203789848761,132.229036844967,1,95644,-0.0222117568167541,-0.0117966604518378,-0.00943820826804412,-0.0115058328327637,-0.010157167752863,104
626,20.8333333333333,121.266883932456,1.00182477631842,132.023426427678,1,95960,-0.021460088253177,-0.0143618141141703,-0.0122001652599814,-0.0128788715583824,-0.0125317634870387,104
627,20.8666666666667,121.266250190134,1.00181954076902,131.694957141963,1,95898,-0.0199810781051593,-0.0141538839386011,-0.0124323883906343,-0.0129631453831297,-0.0125216734760365,104
628,20.9,121.219143338963,1.00143037590302,131.853026542717,1,95092,-0.0143261859170654,-0.0115732259812041,-0.0104452671643349,-0.0117429068942505,-0.0105193389805457,104
629,20.9333333333333,121.264229067538,1.00180284362446,131.818843830068,1,98094,-0.00474306500645216,-0.00768347772615838,-0.00716992183250215,-0.00939918784473677,-0.0073879594232153,104
630,20.9666666666667,121.156219252954,1.00091053976682,130.876092674445,1,97963,0.00224675773958927,-0.0037996612649636,-0.00381769515202732,-0.00627769102282438,-0.00417116294812631,104
631,21,121.143684548179,1.00080698653448,129.732522490828,1,99485,-0.00473618093317629,-0.000987788532809813,-0.00141913750384845,-0.00282806477445497,-0.00174583863159438,104
632,21.0333333333333,121.166549827446,1.00099588396917,129.983980504954,1,100128,-0.00730136589486374,0.000281854864508229,-0.000458982009291095,0.000478396617704087,-0.000551502972183059,104
633,21.0666666666667,121.091417314331,1.00037519008552,130.407169099195,1,99622,-0.000627214627880512,0.000188059200758456,-0.000774457019822477,0.00322906032888204,-0.000510837265138082,104
634,21.1,121.172686463335,1.00104658069426,130.352977920299,1,99790,-0.00584362503778468,-0.000658214301232344,-0.0017462980578995,0.00513644755531672,-0.00116373292118199,104
635,21.1333333333333,121.153172571737,1.00088537015225,129.816570281603,1,100638,-0.00750304279339975,-0.0015584395565512,-0.0026648562689369,0.00608267445041378,-0.00193463226426673,104
636,21.1666666666667,121.162099941317,1.00095912202699,130.008188351921,1,100875,-0.00519763179011301,-0.00202923388856191,-0.00307643449669863,0.00612359358562935,-0.00240450430410185,104
637,21.2,121.194756403933,1.0012289075801,131.964659760105,1,99905,-0.00695911144412609,-0.0019454050230465,-0.00294289383423328,0.00546521692157316,-0.00245343030658129,104
638,21.2333333333333,121.229899648246,1.00151923723755,131.085085844308,1,101521,-0.00666626319289865,-0.00149542430084862,-0.00255908888489614,0.00441355461788954,-0.0022277595717163,104
639,21.2666666666667,121.252649032109,1.00170717722299,131.240479690115,1,101371,-0.00904584077404413,-0.00100595919403204,-0.0023041717846195,0.00330621566528809,-0.00197869964092588,104
640,21.3,121.209424233937,1.00135008324683,131.245799540783,1,101477,-0.00370946862805344,-0.000738500363025058,-0.00238365249950086,0.00244843958046172,-0.00187394352745408,104
641,21.3333333333333,121.196605559324,1.00124418404821,130.944921647716,1,101401,-0.0064757300072511,-0.000757639372321702,-0.00270941456136818,0.00205290328818948,-0.00190271301198341,104
642,21.3666666666667,121.350460708367,1.00251523097609,131.197755960729,1,101959,-0.0102512967099884,-0.000925163690004241,-0.00297508029396963,0.00220700476833575,-0.00190719952252343,104
643,21.4,121.288623251373,1.00200437183209,132.130075646172,1,100644,-0.00769588773734631,-0.00100705472593533,-0.00286733557281388,0.00286029942212267,-0.00171322308949942,104
644,21.4333333333333,121.245408038156,1.00164735704033,131.387854614349,1,100285,-0.00946811331876107,-0.000822614926867125,-0.00227678147227939,0.00383807070676998,-0.00126416604879223,104
645,21.4666666666667,121.140003021644,1.00077657225832,129.913327077262,1,101235,-0.00362287561458796,-0.000348801169107577,-0.00137815470091038,0.00488088403981124,-0.000667770746161565,104
646,21.5,121.028508305741,0.999855478508745,128.763213251828,1,101098,-0.0029750969179787,0.000271723004009819,-0.000534080732644926,0.00569085867791527,-0.000137196601630402,104
647,21.5333333333333,121.034124331947,0.999901874309605,128.53299188396,1,100747,-0.00351660297707346,0.000808822404029795,-8.68589622805947e-05,0.00599076646082282,0.000139015133023739,104
648,21.5666666666667,120.957073278304,0.999265330744884,127.882661903289,1,100209,-0.00654680813494934,0.00105321368513928,-0.000171530014010554,0.00557209252981385,9.35802038680854e-05,104
649,21.6,120.812298212265,0.998069297306511,126.494787941402,1,100664,0.00682542611633608,0.00089129145619483,-0.000668834495387778,0.00433853180589238,-0.000209124686448124,104
650,21.6333333333333,120.931512507101,0.999054164983362,127.100708688268,1,98727,0.00193732185487994,0.00030864387740899,-0.00132746515599963,0.00231980488481579,-0.000672168991014108,104
651,21.6666666666667,120.953081718043,0.999232355180283,127.08983764484,1,98960,-0.000470056986425771,-0.000672294945594423,-0.0019742862147703,-0.000321043384454768,-0.00128022000689615,104
652,21.7,121.067650411092,1.00017884404488,127.73065473204,1,99654,-0.00951246999607225,-0.00206662661887589,-0.00266570849716851,-0.00331860816131325,-0.00216089249931465,104
653,21.7333333333333,121.014569275176,0.999740323688859,128.152235697538,1,100513,-0.000446720934369704,-0.00393166813366623,-0.00365783193485397,-0.00633658670344017,-0.00349960036811138,104
654,21.7666666666667,120.9734985757,0.999401025415646,128.480496982465,1,100634,0.00665729444757579,-0.00625347410303161,-0.00518311820331879,-0.00902387124627832,-0.00535975257033241,104
655,21.8,121.097145176483,1.00042250979915,129.256350491842,1,101252,0.00376022909748075,-0.00876640897287175,-0.00715785172693771,-0.0110622079133638,-0.00749182177729656,104
656,21.8333333333333,121.135535191417,1.00073966207416,129.666135718314,1,101077,0.00391381759744469,-0.010852189618321,-0.00901937921485021,-0.0122109744554955,-0.00927838622461551,104
