frame_index,time_s,G_skin_raw,G_normalized,frame_luminance,face_detected,skin_pixel_count,BVP_detrended,BVP_butterworth,BVP_cheby1,BVP_cheby2,BVP_elliptic,gt_bpm
1,0,120.894748485204,0.999689162005615,125.334348228757,1,86380,-0.00609450089254437,0.000143978680959934,-0.00129279713705357,-0.000458667495373783,-0.000887030319092366,NaN
2,0.0333333333333333,120.850053320006,0.999319573807601,125.257846849872,1,86351,-0.00709119701277516,0.000372897849445305,-0.0018323625021446,0.000797711039343589,-0.00154648166048823,NaN
3,0.0666666666666667,120.800558986687,0.998910300872093,124.446375393599,1,85853,-0.00410473699047609,0.000661045100322627,-0.00193220427683106,0.00198764952993279,-0.00169198286762465,NaN
4,0.1,120.740550416364,0.998414084798765,124.736057583314,1,88220,0.0075790595629055,0.00108010295422195,-0.00141147258229029,0.00302860130872106,-0.00111977871322442,NaN
5,0.133333333333333,120.785367996818,0.998784685259154,124.256455805226,1,86692,-0.00217225941822541,0.00164359577230054,-0.000396026538348365,0.00384844044100229,-1.91718791128683e-05,NaN
6,0.166666666666667,120.862064336831,0.999418893947593,122.444859068183,1,82806,-0.0280597264854843,0.00222147773110712,0.000691207939490299,0.00438649639583908,0.00108803544490378,NaN
7,0.2,120.69834473809,0.998065082384066,124.755436290946,1,88878,0.00989007426617561,0.00249997502428365,0.00127278182521465,0.00460332334976912,0.00158045782791883,NaN
8,0.233333333333333,120.876556389603,0.999538729989049,125.156459945371,1,87622,-0.00525744169819808,0.00207862789866291,0.000859383750073129,0.00446053657687381,0.00100012120483629,NaN
9,0.266666666666667,120.641032759925,0.997591164665206,124.740133507309,1,88135,0.0115924785720547,0.00070052873434333,-0.000701508628802729,0.00395870752954023,-0.000699667776496049,NaN
10,0.3,120.928643300484,0.99996944117331,126.156122954312,1,86829,-0.0101981329337899,-0.00152185381431063,-0.00309774654279775,0.00311009322406523,-0.00313398284933964,NaN
11,0.333333333333333,120.750546936304,0.998496746889279,124.706135271793,1,87217,-0.00312108730401239,-0.00406136131879471,-0.00563569121871524,0.00197702507124395,-0.00560150002981478,NaN
12,0.366666666666667,121.15895054652,1.00187387176833,127.576982863209,1,87920,-0.0146584512651764,-0.00618017858788226,-0.00752142098034594,0.000651358462061645,-0.00739129318471347,NaN
13,0.4,121.124096706475,1.00158566234167,127.63012436141,1,87889,-0.0136786102099715,-0.00728145184182817,-0.00821234177448417,-0.000729567355800464,-0.00805587665694774,NaN
14,0.433333333333333,120.962312651702,1.00024785595911,125.832862464304,1,87427,-0.0100242898353924,-0.00720179650967377,-0.00765877334428322,-0.00200630316413813,-0.00759147469669982,NaN
15,0.466666666666667,121.013956132097,1.00067490037821,128.069195941728,1,88642,-0.00438757342561957,-0.00626975426541011,-0.00630350681607043,-0.00301118599766265,-0.00639858256789825,NaN
16,0.5,120.829156851857,0.999146779099852,125.134662127451,1,86946,-0.00649055396478926,-0.00509798503509948,-0.0048348118456638,-0.00360016627392745,-0.00507363199672361,NaN
17,0.533333333333333,120.982687138362,1.00041633435665,126.184978350172,1,90070,-0.00109137603680387,-0.0042353325569578,-0.00382296773469842,-0.0036799660456394,-0.00411218767764596,NaN
18,0.566666666666667,121.115530991239,1.00151483169937,127.124805237022,1,89211,-0.00713795078137558,-0.00388022887308221,-0.00343401172755193,-0.00324040719074664,-0.00368336768555641,NaN
19,0.6,120.902841655934,0.999756085136411,125.549318778321,1,87759,-0.00581183873464597,-0.00381018845680438,-0.00337044177603955,-0.00236331527401243,-0.0035640231943312,NaN
20,0.633333333333333,121.18811048736,1.00211499784857,127.351164009282,1,89060,-0.0114469449463603,-0.00355089871671125,-0.00306319754380891,-0.00122684609310705,-0.00328129435314597,NaN
21,0.666666666666667,121.027664800983,1.00078825855036,126.860778960272,1,89735,-0.00211876097191643,-0.00267476140683852,-0.00200419879286125,-7.31956643108949e-05,-0.00236379830662643,NaN
22,0.7,120.889182548767,0.999643136794413,125.464898786974,1,87110,-0.00670841092868435,-0.00105743251614253,-3.86874451218723e-05,0.000827301340367476,-0.00060423418072612,NaN
23,0.733333333333333,120.925552015476,0.999943879069425,126.398031311736,1,87571,-0.00523389113343242,0.0010426465201166,0.00253350528386425,0.00124173276140389,0.00181933897916945,NaN
24,0.766666666666667,120.921609127651,0.999911274987984,126.113923720833,1,89557,0.00152766276299166,0.00311329682498045,0.00509089697098636,0.00102794521013359,0.00439374629671499,NaN
25,0.8,120.867899597943,0.9994671462279,125.41729862753,1,89668,0.00268953351300771,0.00464592620640982,0.00697754015845852,0.000183304620422302,0.00648203190736246,NaN
26,0.833333333333333,120.951450395683,1.00015803502186,126.479452971622,1,89648,0.000381624065453945,0.00537587571841524,0.00779237686654536,-0.00113415585144614,0.00758694460332869,NaN
27,0.866666666666667,120.757519128864,0.998554400554344,125.011310833945,1,87232,-0.00155254986044229,0.00537703260220123,0.00754217431942579,-0.00262064819914391,0.00755548493985996,NaN
28,0.9,120.886970599315,0.999624845992526,125.382243851913,1,87534,-0.00853398426506469,0.00497497176824945,0.00660408529406474,-0.0038787969069161,0.00664107439035126,NaN
29,0.933333333333333,120.974170087425,1.00034590612365,124.78271889664,1,87587,-0.015311008797142,0.00455718847836309,0.00554564457101277,-0.00449937016246712,0.0054054967402852,NaN
30,0.966666666666667,120.92722710985,0.999957730570112,125.580269696397,1,89953,-0.00126705394165905,0.00441536942850239,0.00490897957563419,-0.0041560034071928,0.00451437934141252,NaN
31,1,120.947967223766,1.00012923237114,125.551537761939,1,89795,-0.00274013939854734,0.00470837870299151,0.00505430623631143,-0.0027015227594274,0.00449943182089444,NaN
32,1.03333333333333,120.809367361671,0.998983138088904,124.567427865775,1,87187,-0.00728890613430333,0.00552115194713159,0.00609636793589883,-0.000222600380914908,0.00558679659970206,103
33,1.06666666666667,121.110617778804,1.00147420391956,126.279920323134,1,90365,-0.00846707306726824,0.00691134586293008,0.00790800710078174,0.00294097332125885,0.00762367585860418,103
34,1.1,121.019364002678,1.00071961852914,125.745474982169,1,89263,-0.00820831150049561,0.00885629285128183,0.0101485753656991,0.00624114736626793,0.0101304027340695,103
35,1.13333333333333,121.003901670261,1.00059175916113,125.143596625034,1,87191,-0.0172001851401362,0.0111179098092889,0.0123013044068223,0.0090153162279966,0.0124330269333612,103
36,1.16666666666667,120.850019734084,0.999319296082697,124.586690241037,1,88797,-0.004894896306608,0.013141538587478,0.0137378729713125,0.010624893219353,0.0138432374250157,103
37,1.2,120.977301920116,1.00037180351984,125.371396373477,1,88441,-0.0102524830457058,0.0141143597829944,0.0138334585489107,0.0105895141225271,0.0138069064380493,103
38,1.23333333333333,121.079397344023,1.0012160394362,126.02202020202,1,89100,-0.0100064713071506,0.0132167521382377,0.0121238530673646,0.00871932151285961,0.0120117681376182,103
39,1.26666666666667,120.99992656142,1.00055888864132,125.624576296165,1,90472,-0.00370153701294251,0.00996631632572723,0.00845412533324028,0.00517872277286978,0.00841653565903562,103
40,1.3,120.970825173358,1.00031824673909,124.977220240935,1,88046,-0.0121626725749315,0.00447261847436719,0.00305404022455685,0.000486746847268992,0.00324529292133528,103
41,1.33333333333333,122.067466482531,1.00938646885067,133.644628800969,1,90284,-0.0462528922842418,-0.00254249814712493,-0.00349280014093287,-0.0045661044898389,-0.00304390920163178,103
42,1.36666666666667,122.028428631107,1.00906366147098,133.223123762561,1,89230,-0.0463226059268349,-0.00996015209483076,-0.0103609765873107,-0.00905846458419447,-0.00977500521608429,103
43,1.4,121.973098937905,1.00860613543843,133.373515196199,1,89518,-0.0424400589948044,-0.0165688832791726,-0.0166134538703965,-0.0121318129177638,-0.0160832880742057,103
44,1.43333333333333,121.988652996438,1.00873475329765,133.001956852157,1,89259,-0.0475988380302432,-0.0212890574766958,-0.0213052136914064,-0.013165260205411,-0.0209687935152454,103
45,1.46666666666667,121.952917264734,1.00843925143235,132.884437883498,1,89418,-0.0450430563768429,-0.0232716268931452,-0.0235764819835288,-0.0119170427522516,-0.0234388590842969,103
46,1.5,121.955401167663,1.00845979104114,132.674315106787,1,89430,-0.0454148617406076,-0.0219719484134661,-0.0227955794612608,-0.00859052681689017,-0.0227473301749892,103
47,1.53333333333333,121.891525601297,1.00793159844209,132.871909844995,1,89653,-0.0411572196049654,-0.0173194182143463,-0.018783872951202,-0.00379885592705232,-0.0186813063386494,103
48,1.56666666666667,122.045217572165,1.00920249068092,130.846188029866,1,87011,-0.0635670810091744,-0.00996716227088385,-0.0120608435875414,0.00154407049047885,-0.0118131592745337,103
49,1.6,121.978653316338,1.00865206507549,133.126850462064,1,90608,-0.0445016393693296,-0.00142716135783286,-0.00395506405977184,0.00641970393497015,-0.00354628156037832,103
50,1.63333333333333,120.908199002396,0.999800385499015,125.054990840445,1,89524,-0.00939496905221726,0.00614987984630459,0.00357685841502735,0.00990355185807494,0.00410735468138381,103
51,1.66666666666667,121.002899179413,1.00058346947735,126.169598200921,1,91306,-0.00702697138165487,0.0106101818066341,0.00846199579292721,0.0113611031061411,0.00904915884321366,103
52,1.7,120.809644869734,0.998985432827145,124.995394884102,1,90841,-0.00285128988043848,0.0106066875137012,0.00920667489083224,0.0105820565355981,0.0097725521044087,103
53,1.73333333333333,121.80984405537,1.00725616665351,132.987543487234,1,90448,-0.0392065323087047,0.00616833958835555,0.0054950914252355,0.00780217899378408,0.00593910466260342,103
54,1.76666666666667,121.786791942225,1.00706554673031,133.016077030797,1,92119,-0.0313613376474098,-0.00127130807051472,-0.00158168010388694,0.00366277072035047,-0.00134823878839491,103
55,1.8,121.633797657062,1.0058004237151,131.801742602336,1,89330,-0.0351904436157626,-0.00937877526061647,-0.00979149407804151,-0.000957213706838954,-0.00979701368457761,103
56,1.83333333333333,121.607213817956,1.00558059964357,131.694113693643,1,89275,-0.0366793054735344,-0.0156946766087769,-0.0164447667462043,-0.00511834981747242,-0.0165986848852044,103
57,1.86666666666667,121.63020637291,1.00577072707493,131.563697648692,1,89794,-0.0355581075517037,-0.0183594293694066,-0.0192594271357861,-0.00803031146728642,-0.0193689850013128,103
58,1.9,121.507479285989,1.00475588614746,130.591513448808,1,88273,-0.0359043878082861,-0.0165815898320737,-0.0171090815097307,-0.00920703395934461,-0.0169760997154819,103
59,1.93333333333333,121.288054070368,1.00294144000587,128.570901893235,1,88244,-0.0275634752070917,-0.0107798427256906,-0.0103984667506947,-0.00854926562639722,-0.0099503139942295,103
60,1.96666666666667,120.750619018598,0.998497342944017,122.853154121864,1,83700,-0.028047889619363,-0.00241777630538107,-0.00093288813447162,-0.00634408914289007,-0.000301316132375379,103
61,2,120.742455228973,0.998429835859453,125.596971534288,1,85764,-0.00701402596059264,0.0064116403257726,0.00868522024877826,-0.00316748939961876,0.00921758058190788,103
62,2.03333333333333,120.599225019455,0.997245452832722,126.028219432267,1,83713,0.00261514346715619,0.0135653054921543,0.0159350812219992,0.00025570753274126,0.0160935482800859,103
63,2.06666666666667,120.62050951432,0.99742145616705,125.436615466358,1,82812,-0.00404633864997006,0.0174613136736213,0.0192247927664824,0.00322712021255398,0.018920345951538,103
64,2.1,120.421384527519,0.995774874378476,122.198216097234,1,87075,0.00991585351275326,0.0175506973661635,0.0183936151383367,0.00522627894894804,0.0177964605174604,103
65,2.13333333333333,120.483751958179,0.996290596072544,122.616026835355,1,89633,0.0146323978506706,0.0144821759979201,0.0146715467009273,0.00600232440174747,0.0141164562503161,103
66,2.16666666666667,120.779348471862,0.998734909285142,123.796945293387,1,89654,-0.000468415745091599,0.00986350110844977,0.0101061962872748,0.00560433609140412,0.00988079882676631,103
67,2.2,120.852697800586,0.999341441246901,124.220548582055,1,89625,-0.00292128785808177,0.00565889286760714,0.00668991927013584,0.00433526529191051,0.00683720126768521,103
68,2.23333333333333,120.678574505457,0.997901600615494,121.791370317686,1,87172,-0.0101153523836286,0.0034278492006117,0.00555984848390598,0.00264472173015654,0.00582787272164886,103
69,2.26666666666667,120.956351170682,1.00019855995544,128.251555123524,1,88471,-0.00566558169001907,0.00372253961726875,0.00662211041452579,0.00100975550470237,0.00661738682288027,103
70,2.3,120.524153362048,0.996624678785677,125.039238038213,1,86846,0.00944420331790585,0.00592655846270969,0.00875887766079733,-0.000187693683629325,0.00821375028504024,103
71,2.33333333333333,120.842139941714,0.999254137396073,123.427888409228,1,86172,-0.0159257878623775,0.00862208893222004,0.0104937886539914,-0.000751472845999254,0.00946532251496059,103
72,2.36666666666667,119.972169238836,0.992060274190045,125.920855212141,1,75225,0.0328160913180453,0.0103087686431498,0.0107606376933407,-0.000677346045770333,0.0096442643931471,103
73,2.4,120.408272967581,0.995666453752011,127.633574545703,1,78216,0.013853819493431,0.0101077235956795,0.00937130611651529,-0.000161552801201324,0.00865748475968186,103
74,2.43333333333333,120.883655881063,0.999597436299766,129.569187924965,1,82948,0.000425251751271061,0.00808190460773315,0.00695002636012323,0.000506686365673241,0.00691932035028264,103
75,2.46666666666667,121.060483471252,1.00105963898161,128.847231031775,1,88288,-0.00531349258409608,0.00501815775697534,0.00440838180703384,0.00100984708095446,0.00491900169820016,103
76,2.5,121.321411213653,1.00321727311719,131.108317859883,1,89939,-0.0132537218731064,0.00184342283080712,0.00230667110347599,0.00110098463791691,0.00285777064068305,103
77,2.53333333333333,121.10028484043,1.00138875995583,128.735471482117,1,90265,-0.00428206003519049,-0.000926969589114376,0.000514228706664257,0.000665739090260922,0.000546007081545071,103
78,2.56666666666667,120.902278580576,0.999751429017431,128.841559578883,1,87545,-0.000150653032569226,-0.00335614170972477,-0.001610366264413,-0.000261568974461474,-0.00236338860303314,103
79,2.6,120.946927025809,1.000120630884,128.748290559672,1,88528,0.00163277803315531,-0.00580072770729434,-0.00463853700256428,-0.00151120947376336,-0.00596067792884525,103
80,2.63333333333333,120.97990619989,1.00039333853519,127.811402078188,1,85844,-0.0162842562454679,-0.00842345851356731,-0.00848399927265731,-0.00283673749850181,-0.00979936996960416,103
81,2.66666666666667,121.163342339228,1.00191018788319,130.970996898831,1,90611,-0.00175184886785917,-0.010879333475158,-0.0122279754127346,-0.00397057636904764,-0.0129423984932481,103
82,2.7,121.188624549314,1.00211924867145,128.322784069637,1,85472,-0.0282004693103293,-0.0124174036770356,-0.0145275229015337,-0.00470617662189601,-0.0144054650536797,103
83,2.73333333333333,121.375359497184,1.00366337615336,131.101076831359,1,89460,-0.0156298830255956,-0.0123498860354041,-0.0143999845407515,-0.00491631494442742,-0.01370185798712,103
84,2.76666666666667,121.330216374732,1.00329008375794,127.494325332357,1,87406,-0.0289414267803239,-0.0105830242053927,-0.0119072072714517,-0.00459464119123405,-0.0112354636472906,103
85,2.8,121.374884797424,1.00365945081986,130.893444927442,1,92478,-0.00743930915954127,-0.00783786216762511,-0.00827987600026933,-0.00381218140339896,-0.00817962246125782,103
86,2.83333333333333,121.259518712851,1.00270547865932,130.119155036783,1,90213,-0.013946007584803,-0.00535989058585686,-0.00533414851923061,-0.00270551521710564,-0.00594200942868419,103
87,2.86666666666667,121.265078919821,1.00275145649306,130.675967513576,1,90171,-0.00909012353215677,-0.00423129530798015,-0.00446531268734685,-0.00141259921350346,-0.00540165646945886,103
88,2.9,120.936713272671,1.00003617247333,128.648642577138,1,89029,0.00254341043628825,-0.00467479114477716,-0.0057953863634056,-4.84656050891302e-05,-0.00641014340227305,103
89,2.93333333333333,120.853716389034,0.999349864043138,127.578628476004,1,91820,0.0179666453673615,-0.00580359889003949,-0.00801122538329539,0.00132456545712436,-0.00780898660291111,103
90,2.96666666666667,122.241051577761,1.01082185906043,135.924672263347,1,96724,-0.0399622799895036,-0.0060580210560876,-0.00905429163225723,0.00267633002774144,-0.00805085546775787,103
91,3,121.875694817911,1.00780069232106,134.371657371657,1,95571,-0.0222822872836443,-0.00415185679292166,-0.00731487317049321,0.0040107546543663,-0.00604158154310793,103
92,3.03333333333333,121.992504545839,1.00876660209373,135.163237801185,1,95221,-0.0279780504994465,3.11055780938459e-05,-0.00264605555785221,0.00529154351447257,-0.00183515671741072,103
93,3.06666666666667,120.677242017885,0.99789058216018,128.003635314484,1,86650,0.0199409122477578,0.0052009947157068,0.00342575912573626,0.00645114911532023,0.00333578472874379,103
94,3.1,120.441778642246,0.995943515082206,127.92568361215,1,83149,0.0222302869155753,0.00930584364655425,0.00846285483616488,0.007339233656107,0.00761648857418848,103
95,3.13333333333333,120.856492870795,0.999372823011655,127.811215592786,1,90606,0.00962446994624577,0.0106887005992362,0.0104368630601043,0.00775959255635774,0.00949640206131596,103
96,3.16666666666667,120.885788063913,0.999615067504706,128.107400930478,1,90921,0.00789823532068579,0.0090392694283858,0.00884532196382418,0.00749549834902902,0.00857313479568292,103
97,3.2,120.909526302481,0.999811361058549,127.893881400122,1,90135,0.00112948738799834,0.00555291740584061,0.00496879335064843,0.00637013859760629,0.00574012079990384,103
98,3.23333333333333,120.917016306057,0.999873296547825,127.718523162201,1,90924,0.00229882449412067,0.00220688401520337,0.00111388228887085,0.00431562536420894,0.00267531235505328,103
99,3.26666666666667,121.302407801204,1.00306013225124,131.173577307726,1,90392,-0.0189622808553613,0.000588508852310811,-0.000719637180408062,0.00141396051193909,0.000898918405718525,103
100,3.3,120.537477054585,0.996734853555009,128.969504211852,1,80962,0.00931865310867175,0.000964407507393337,2.66166324453276e-05,-0.00206350371036279,0.000962075986481923,103
101,3.33333333333333,120.473992435466,0.996209893732658,126.574798952763,1,78174,-0.0107250248058599,0.00214424380870614,0.00219309914172058,-0.0057004600556999,0.00215484027365796,103
102,3.36666666666667,120.465761403711,0.996141830617095,130.252241218423,1,80016,0.0115568713714951,0.00224529815611333,0.00364588643903559,-0.00896612209841202,0.0029781230250877,103
103,3.4,119.99475060322,0.992247001450913,128.381468418273,1,78252,0.0314153761036804,-6.54883503123722e-05,0.00260909751591494,-0.0113345529776256,0.00203948231193579,103
104,3.43333333333333,119.142557459205,0.985200142421201,124.64526772517,1,69910,0.037618392737454,-0.00459515405194238,-0.00118951302405994,-0.0123696489591661,-0.00103043696804846,103
105,3.46666666666667,122.006296654902,1.00888065023995,134.692084315186,1,98029,-0.0392305964745248,-0.00954630404722084,-0.00622774249660234,-0.0118428527180041,-0.00523727930795505,103
106,3.5,121.674923044221,1.00614049310886,132.634074012196,1,95768,-0.0284517191484073,-0.0124303391265966,-0.00992200059176762,-0.00976696351887251,-0.00857199813364676,103
107,3.53333333333333,121.286278250019,1.00292675559336,131.475908335684,1,95697,-0.00785349962308812,-0.0114201117143216,-0.00996374536958824,-0.00644132501607545,-0.00898305761327366,103
108,3.56666666666667,120.421570968443,0.995776416074652,131.059819931698,1,80525,0.0245205742111452,-0.00631219965940999,-0.00551645775232018,-0.00237480211518695,-0.00538749572134741,103
109,3.6,120.279762021381,0.994603785590448,125.55325726202,1,90792,0.0374347340416126,0.00142221399625879,0.00234591771977724,0.00179319928341368,0.00169533869382912,103
110,3.63333333333333,120.601838642281,0.997267065106583,128.913292491395,1,91899,0.0238938466674883,0.00939620690716805,0.0111223058178756,0.0054246481393315,0.0102520337399005,103
111,3.66666666666667,120.573873075472,0.997035815408823,128.654481237147,1,93527,0.0283291888165971,0.0153337817321238,0.0179683021537157,0.00801316058232647,0.0175386327217004,103
112,3.7,120.528091845981,0.996657246450962,128.670556071062,1,93759,0.0304438747275311,0.0178226478033942,0.0208162756922548,0.00927392780551468,0.0211468574394671,103
113,3.73333333333333,120.5060046482,0.996474605496597,128.327839119229,1,94281,0.0347972827052911,0.0165614726221911,0.0190470566238254,0.00919600488435123,0.0199230750107747,103
114,3.76666666666667,120.012669181219,0.992395171726697,130.897583481796,1,80267,0.0298854889546567,0.0121923530833693,0.0135201720533552,0.0080184813336128,0.014345748014374,103
115,3.8,120.335206799568,0.995062263270733,129.350380923884,1,86894,0.0273696970587263,0.00595206586507896,0.00608146325734092,0.00615986554017319,0.00626930176838458,103
116,3.83333333333333,120.159097168963,0.993605997458967,128.183457755104,1,85462,0.0292299979554371,-0.000668767930128746,-0.00115405524589298,0.00410385399211187,-0.00182010375305815,103
117,3.86666666666667,120.228300679965,0.994178247294369,128.860916227687,1,84666,0.0250026515180803,-0.00620038134851248,-0.00644678175807609,0.00227821134590597,-0.00769441442131844,103
118,3.9,120.361144775451,0.995276746643245,129.4915173548,1,84722,0.0171769850069952,-0.00944442179114492,-0.00883073644972868,0.00095670271345491,-0.0100794992932738,103
119,3.93333333333333,120.185396569707,0.993823469485013,126.93851975929,1,80595,0.0054070756250344,-0.00974023420300706,-0.00823495342843026,0.000204984298072638,-0.00894837301126907,103
120,3.96666666666667,120.436344018124,0.995898575703921,129.481136688265,1,86579,0.0193794587214442,-0.00719810893761344,-0.00538335169474202,-0.000105167340940187,-0.00536556570495111,103
121,4,120.346662599102,0.995156992270788,130.791512448383,1,85647,0.0254741500816651,-0.00277046047768751,-0.00154431639154724,-0.000238156397932506,-0.00102233825275352,103
122,4.03333333333333,120.413180135961,0.99570703155301,127.854367080561,1,94388,0.0335811698878052,0.00194979381218192,0.00181416138302458,-0.00048535087427199,0.00236476062879403,103
123,4.06666666666667,120.547572444279,0.99681833320809,128.292469015448,1,95397,0.0272749717657381,0.00519826298563748,0.00341205714658162,-0.00106761477257614,0.00356279170343158,103
124,4.1,120.549297001948,0.996832593725048,128.230943058275,1,96028,0.0281814604017212,0.00563706766459442,0.00251629545833702,-0.00204955744858926,0.00213010578899479,103
125,4.13333333333333,120.248065520499,0.994341684475204,125.707456270382,1,94444,0.035629172933495,0.00286729254074586,-0.00082433672447978,-0.00331473724278768,-0.00154966706359732,103
126,4.16666666666667,120.096762428224,0.993090546080693,125.494378391846,1,85622,0.0370360647810684,-0.00235632901973715,-0.00576099155027263,-0.00459396440431188,-0.0064542203196108,103
127,4.2,120.289027776883,0.994680404926436,125.498123865842,1,89457,0.029854642749249,-0.00833825539811436,-0.0108836751293992,-0.00554525388422361,-0.0112460639592553,103
128,4.23333333333333,121.925697058207,1.00821416518342,133.391143397353,1,100490,-0.0316890971600052,-0.0130456212809003,-0.0146617625401586,-0.0058768166124947,-0.014658365608792,103
129,4.26666666666667,120.11938901966,0.993277647327971,126.529369925888,1,84826,0.0353283739114858,-0.014863798754776,-0.0159344309937814,-0.00541673250198386,-0.0157719049594935,103
130,4.3,120.919380281732,0.999892844467746,128.715746785141,1,89921,0.00575888089218402,-0.0131637818566177,-0.0142656888386055,-0.00423195171224019,-0.0142560288137068,103
131,4.33333333333333,120.37979363598,0.99543095568862,124.100521643157,1,89397,0.0266020944133374,-0.00844571411503893,-0.0100402299308619,-0.00256767381762537,-0.010365309443627,103
132,4.36666666666667,120.549145985952,0.996831344960677,124.46011860745,1,91956,0.0221458429185049,-0.00206486656191471,-0.00429814337142579,-0.000840226324353958,-0.0049160997920614,103
133,4.4,120.408199354495,0.995665845039015,123.205332621843,1,93700,0.03066349646071,0.00426308968042162,0.00158997766659705,0.000516583068097338,0.000923670159518949,103
134,4.43333333333333,120.62154410933,0.997430011322931,123.597906227059,1,93993,0.0237679621874392,0.00895403853696275,0.00627742121807902,0.00116360539173578,0.00584522621336925,103
135,4.46666666666667,120.537379694757,0.996734048478148,123.378556315716,1,93109,0.0290567639249901,0.0109177426167724,0.00873713879875638,0.000984771323000434,0.00869675898348998,103
136,4.5,120.436424912655,0.995899244627816,122.292167929904,1,93015,0.0304453090330461,0.00977272808331509,0.00847297673895799,0.000137555437739981,0.00876931963284083,103
137,4.53333333333333,120.601098247628,0.99726094271898,122.821548608697,1,94911,0.0268708440897456,0.00593671138531749,0.0056504381649406,-0.000960480889744587,0.00605288998297536,103
138,4.56666666666667,120.472671804017,0.996198973316653,124.369380335442,1,82975,0.0234413094031116,0.000585337285428558,0.0011336187625314,-0.001732697648368,0.00135927821175362,103
139,4.6,120.630605696046,0.99750494236951,124.660523053945,1,86594,0.0202668383452467,-0.00456550176259496,-0.00361973657390944,-0.00160066317898929,-0.00376107241201303,103
140,4.63333333333333,121.733601108594,1.00662570711308,130.42278535151,1,93525,-0.00642425676075198,-0.00767534873916446,-0.00685561934520561,-0.000167150590244802,-0.00737548141429925,103
141,4.66666666666667,121.504583630765,1.00473194172323,129.449880090727,1,92292,0.00591860987931714,-0.00732321534281648,-0.00700653403712716,0.0026447228340374,-0.00773588824414312,103
142,4.7,120.78590169,0.998789098414369,123.381477554679,1,91489,0.025075801341901,-0.00301602584806995,-0.00325301656296006,0.00650478650084667,-0.00393203159608792,103
143,4.73333333333333,121.00250964682,1.00058024839855,124.705454178558,1,92504,0.0193167817653772,0.00452303632305637,0.00402979088400925,0.0107080114778658,0.00363199670394859,103
144,4.76666666666667,121.287223909613,1.00293457533458,126.330374504229,1,94970,0.00916557759160064,0.0134092339236904,0.013152359162933,0.0143008590318638,0.0131385419258966,103
145,4.8,120.644612126424,0.997620762757269,123.474621324458,1,91041,0.0335821521357662,0.021024782471968,0.0214510186953541,0.0162905645892755,0.0217724987673637,103
146,4.83333333333333,120.57714896404,0.997062904015556,121.831316385165,1,91888,0.0314741266477419,0.0247527563232274,0.026057881135315,0.0158748092050415,0.0265553443722237,103
147,4.86666666666667,120.365477762083,0.995312576485563,121.489376624144,1,90304,0.043084562828184,0.0228267157694641,0.0248761456650478,0.0126702851427044,0.025371316935467,103
148,4.9,120.601080058439,0.997260792310993,122.318724350394,1,90401,0.0318839120561389,0.0149975411470725,0.0174017897770423,0.00683023316914838,0.017769284601914,103
149,4.93333333333333,120.480150099543,0.996260811991046,118.348372806663,1,86683,5.16898501947693e-05,0.00272434287087165,0.00504281361619678,-0.000929308762772906,0.005251797719068,103
150,4.96666666666667,120.432154185876,0.99586392961762,115.863878731573,1,83957,-0.00911794895269646,-0.0112269917806868,-0.0092350169830831,-0.00943991181176281,-0.00912411218418795,103
151,5,120.637308774542,0.997560370707039,116.275390710546,1,83715,-0.0178043015557121,-0.0236262833949071,-0.0218319275666643,-0.0173025820354311,-0.0217033433356513,103
152,5.03333333333333,121.644628072685,1.00588998136136,123.805612155345,1,87358,-0.0373621361593603,-0.0317198927503011,-0.0296622678958741,-0.0231609044754579,-0.0293993502293859,103
153,5.06666666666667,121.698682727396,1.00633696399002,126.917826986831,1,90995,-0.0145384795226338,-0.0339258722656446,-0.0310916147303907,-0.0259693519407837,-0.0306285403204049,103
154,5.1,120.662013174055,0.997764653529546,116.266945998511,1,83294,-0.0216584597624809,-0.0301025493210896,-0.0263262404613644,-0.025218476069833,-0.0256918141213539,103
155,5.13333333333333,120.686707155078,0.99796885020066,117.301770684928,1,83527,-0.0151034936928569,-0.021410763763392,-0.0171519844594982,-0.0210154242744423,-0.0164494520057607,103
156,5.16666666666667,120.878459538209,0.999554467289962,119.154147095547,1,84095,-0.0175192244053382,-0.00990565011334417,-0.00617760585717687,-0.0140716056266288,-0.00552567185102687,103
157,5.2,120.877904369425,0.999549876551126,120.566944224161,1,85748,-0.00612355112457297,0.00200553966874471,0.00408773692156446,-0.00553897473454648,0.00464553707949264,103
158,5.23333333333333,120.929356855048,0.999975341617891,124.537481630299,1,89595,0.0243195716769877,0.0121404664658159,0.0119612423460262,0.00322201157657228,0.012495935168044,103
159,5.26666666666667,120.877694121757,0.999548137994925,124.791343205568,1,90557,0.032639852939623,0.0190413363692036,0.0168653593670741,0.0109070523290125,0.0175057391638797,103
160,5.3,120.744981186404,0.998450723220568,124.930977511266,1,90386,0.0387486811662887,0.0222375851439022,0.0191112420323024,0.0165132589842658,0.0199208521775587,103
161,5.33333333333333,121.177149707772,1.00202436221138,127.603538991993,1,93002,0.0228276007789177,0.0221429763181757,0.0193621705127004,0.0194878930002354,0.0202315981097194,103
162,5.36666666666667,121.843504777371,1.00753451008357,132.700653019139,1,93106,6.41825794867046e-06,0.0196315608338794,0.0180994200043013,0.0197827458387987,0.0187634533875494,103
163,5.4,121.189854892153,1.00212942248312,129.989605219086,1,87576,0.0220405163162989,0.0155522888808058,0.0154010437526214,0.0177968637161224,0.015600887050874,103
164,5.43333333333333,121.320589312804,1.00321047674778,130.087068962282,1,88807,0.0103801611717425,0.0105001540168138,0.0111536502950327,0.0142162973890467,0.0108277911347835,103
165,5.46666666666667,120.96380641378,1.00026020800731,130.053635229454,1,86299,0.0287733681083497,0.0049638069117616,0.0055345219507741,0.00984937138044118,0.0049163167401515,103
166,5.5,121.152586696192,1.00182124853795,132.744682931599,1,81812,0.0175722157065552,-0.000354410411600566,-0.000605497069999835,0.00542255977514984,-0.00111531412960392,103
167,5.53333333333333,121.024425279709,1.00076147066794,133.035784241107,1,81004,0.0248014714663736,-0.00443255717631458,-0.00580769542262546,0.00147599932667672,-0.00588410634081828,103
168,5.56666666666667,122.010532836713,1.0089156795948,136.111276324141,1,93482,-0.0115722690196614,-0.00628503140111635,-0.00860051340865817,-0.00171522155728951,-0.00822145700214775,103
169,5.6,122.600589210783,1.01379490693528,139.446651325322,1,97775,-0.0354187461085638,-0.00563382087359238,-0.00833526431661527,-0.00410318402607698,-0.00779570476278636,103
170,5.63333333333333,121.324531178602,1.00324307237799,132.067970943608,1,92005,0.0171091891002879,-0.00339261149438545,-0.00574442837849953,-0.00578978086890164,-0.00545016935362096,103
171,5.66666666666667,121.492422259916,1.00463137829277,133.478270814273,1,91812,0.00981674289260503,-0.00146723069919995,-0.002794044878189,-0.00693720635979234,-0.00299820572909358,103
172,5.7,120.952203840294,1.00016426532071,129.299574027628,1,92103,0.0332719491486335,-0.00181376284862474,-0.0017915956614949,-0.00764116240021724,-0.00243781676434536,103
173,5.73333333333333,120.672159489845,0.997848554294942,128.641052738617,1,91786,0.0449615641089132,-0.00526310320497353,-0.00417155877483344,-0.00790449805192793,-0.00498138290005629,103
174,5.76666666666667,122.277723547937,1.01112510276286,138.993021175687,1,96148,-0.0201951200145563,-0.0108673249450863,-0.00961701999123167,-0.00763511716224163,-0.0103200322890527,103
175,5.8,121.672067158835,1.00611687754488,135.554748967305,1,93122,-0.000679386015359773,-0.0162321404320845,-0.0160277298169357,-0.00668554160572025,-0.0165352701034388,103
176,5.83333333333333,122.575736200436,1.0135893952369,139.795727551899,1,99537,-0.0390053779140371,-0.0186719377060274,-0.0203975925221712,-0.00499151628332214,-0.020841705345566,103
177,5.86666666666667,121.015067441352,1.00068408989084,133.147950305532,1,90607,0.0290391524640219,-0.0165198608127391,-0.0201858618757137,-0.00260379112345923,-0.0207431899930522,103
178,5.9,121.077395152226,1.00119948313856,133.032721433364,1,90919,0.0230800282222818,-0.00989396130207576,-0.0145262352929287,0.000195614091752245,-0.0152766141347233,103
179,5.93333333333333,121.128784369083,1.0016244250304,131.821204266949,1,94525,0.0275348329252425,-0.000620818795299229,-0.00472122448001963,0.00295301224907992,-0.00557366074733747,103
180,5.96666666666667,121.122210577714,1.00157006577934,131.876098036515,1,94373,0.0279169607060943,0.00850413986843415,0.00618056135082984,0.00508168731123431,0.00538371263608751,103
181,6,120.965085518953,1.00027078503894,131.41101772854,1,94236,0.0342632131459595,0.0147057154265651,0.0145279980232138,0.00601083779861176,0.0138822373802746,103
182,6.03333333333333,120.817718235823,0.999052192191641,132.482538953249,1,91413,0.0376334143862007,0.0161016117198156,0.0174608186756108,0.00533229886362025,0.0169368213409907,103
183,6.06666666666667,120.844365258832,0.99927253873635,133.235897943691,1,90891,0.0359711001848881,0.0122547528490637,0.0140109330101233,0.00294066795464545,0.0135168695683422,103
184,6.1,120.996375530045,1.00052952485485,134.007261320714,1,92132,0.0284826699067533,0.0043231867948966,0.00549794419309495,-0.000885920657835872,0.00499301350429562,103
185,6.13333333333333,120.916706350995,0.999870733502532,134.516437745722,1,92754,0.039835326899853,-0.00521993546460092,-0.00492840910337895,-0.00548249261254671,-0.00537183398420494,103
186,6.16666666666667,121.199535343068,1.00220947097144,135.879863508142,1,92997,0.024701558362713,-0.0132763063617108,-0.0134319831265106,-0.00990178422480045,-0.0136854650238683,103
187,6.2,121.949861513471,1.0084139831601,140.109421981118,1,95118,-0.00726163691470694,-0.017095079840516,-0.0168928854531448,-0.0130873178217415,-0.0168961796642587,103
188,6.23333333333333,121.512154332112,1.00479454450937,138.661096838574,1,94198,0.0131935674207651,-0.0152363694663768,-0.0140286201060543,-0.0140952765492756,-0.0138690437834019,103
189,6.26666666666667,121.796057893666,1.00714216768653,140.90794971715,1,94691,0.000571087341894483,-0.0081239999299323,-0.00578691740025078,-0.012335585418729,-0.00567762966508252,103
190,6.3,120.670162826611,0.997832043713463,132.465538133218,1,92155,0.0496424290373776,0.00211919640068423,0.00514634036539312,-0.00771011085106504,0.00501930508089296,103
191,6.33333333333333,120.700636586451,0.998084033876964,133.410633598112,1,92656,0.05099273466879,0.0125365252929527,0.0154999523598716,-0.000719421188758478,0.0151080357672143,103
192,6.36666666666667,120.57195432401,0.997019949086547,133.230466057971,1,89481,0.0474024948814282,0.0205122100830023,0.0227108513266818,0.00761499689088292,0.0222392303037411,103
193,6.4,120.493423472505,0.996370570663447,133.397647145733,1,90245,0.0532989069574143,0.0246949977474402,0.0257823041284552,0.0158980375099344,0.0255286254798086,103
194,6.43333333333333,120.328636913515,0.995007936313064,132.219232447867,1,90122,0.051988804708464,0.0252578071643661,0.0253534978231057,0.0226196077915003,0.0255514356871489,103
195,6.46666666666667,120.267583151956,0.994503077462743,131.93698568873,1,89440,0.0521059851608947,0.0234377545102617,0.0230168604812596,0.026450162164587,0.023689832490466,103
196,6.5,120.33684630301,0.995075820466906,132.125703411313,1,89682,0.0475377917255824,0.0206497309772308,0.0202781413066418,0.0265095920545766,0.0212174705448006,103
197,6.53333333333333,120.424082876835,0.995797187263037,132.086799994068,1,89904,0.0399395732584842,0.0176437925455727,0.0177060005642858,0.022564430566659,0.0185959629714902,103
198,6.56666666666667,120.471262338221,0.996187318321724,132.090133619661,1,89408,0.0344592779086628,0.0141301962373851,0.0146960358317556,0.0150991897734344,0.0153062256703755,103
199,6.6,120.544546159732,0.996793308598662,132.055977643874,1,91608,0.0365335136193501,0.00905963259470702,0.00994691754850596,0.0052472013807966,0.0102719831782283,103
200,6.63333333333333,120.604020334455,0.997285105708423,131.444776461652,1,93034,0.038182784912993,0.00141518087706067,0.00237929986071919,-0.00541135216708691,0.00263262084069654,103
201,6.66666666666667,120.655675294471,0.997712245053501,131.777545201149,1,93637,0.0332380423387073,-0.00890619429303438,-0.00799514496188724,-0.0151424740481298,-0.00752832822083281,103
202,6.7,121.717678653893,1.00649404295399,138.120403049528,1,93785,-0.0170065405051274,-0.0206150733272486,-0.0197155331183839,-0.0223977334160903,-0.018885444643549,103
203,6.73333333333333,121.705572545328,1.00639393649215,137.789667173864,1,95295,-0.00972374718615132,-0.0312434682542267,-0.0302195892207168,-0.0260944140888761,-0.0291215471589915,103
204,6.76666666666667,121.586714135463,1.00541108599083,136.39774082209,1,95610,-0.00526059402044221,-0.0379747413474787,-0.0367392127309998,-0.0258372756527849,-0.0356721317366016,103
205,6.8,122.001399826867,1.00884015794416,137.767479033463,1,96344,-0.0234867605751803,-0.0387085245709578,-0.0373333719608973,-0.0219660747327006,-0.0366053098816348,103
206,6.83333333333333,122.036534196592,1.00913068709508,137.56931335002,1,99483,-0.0217641647710589,-0.0328938811444521,-0.0316157106550669,-0.0154689784451866,-0.0313381375315868,103
207,6.86666666666667,121.247068423638,1.00260252613784,133.642592199335,1,94180,0.00411258049628027,-0.021795387895883,-0.0209097011088296,-0.00775949272809273,-0.0209138637975349,103
208,6.9,120.58258552848,0.997107859438492,129.765104640582,1,87920,0.0256134289461218,-0.00811423967336018,-0.00783162508448574,-0.000363373004253325,-0.00777220635472305,103
209,6.93333333333333,120.557629275107,0.996901494014571,128.089734847255,1,92387,0.0313318219042431,0.00484310128911464,0.00448079651106135,0.00540837286401244,0.00489405027302149,103
210,6.96666666666667,120.710058358618,0.998161943328292,127.883912261623,1,93794,0.0266436719621235,0.0141017113786204,0.0132022117135711,0.00872777000140161,0.0139986644934936,103
211,7,120.781961742407,0.998756518645956,127.314026007085,1,94282,0.0233638941608272,0.0177565004888647,0.0164930565234798,0.00940293025323865,0.0174052319929119,103
212,7.03333333333333,120.639793505137,0.997580917159868,125.418241962593,1,93210,0.0217655841882731,0.0153856552534968,0.0139153280376553,0.00787819966234629,0.0145405079851266,103
213,7.06666666666667,120.559317540004,0.996915454423449,124.964951032954,1,93260,0.0293245745714934,0.00815441627046583,0.00657132076762673,0.00508841241216064,0.00662726606589036,103
214,7.1,120.338393993547,0.995088618454211,124.648968206403,1,90102,0.0402340486256543,-0.00137726496746951,-0.00305976082229137,0.00220063392711069,-0.00355266589452646,103
215,7.13333333333333,121.284267295796,1.00291012683846,130.424035969805,1,94672,0.00807911008527196,-0.00980204899234844,-0.0116403012345499,0.000302052611367551,-0.0123743346240381,103
216,7.16666666666667,121.975420604518,1.00862533350104,133.191514884939,1,100034,-0.0103603624840221,-0.0137937669269774,-0.015851840904946,0.000129401776989563,-0.0164174202617764,103
217,7.2,122.079841240237,1.00948879679556,134.069665101082,1,97940,-0.0210783608570062,-0.0112328888751139,-0.0134744547479845,0.00186876094545951,-0.013613102701927,103
218,7.23333333333333,120.848045460719,0.999302970644985,127.980101123596,1,89000,0.0229761434048228,-0.00210628737389647,-0.00431934159756654,0.00512611946429611,-0.00406391030486955,103
219,7.26666666666667,120.485577685981,0.99630569317411,124.84678906871,1,86382,0.032941415267556,0.0112644508873922,0.00940734730926074,0.00901349536296893,0.00975354831221415,103
220,7.3,120.335202319268,0.995062226222743,122.344212806631,1,90323,0.0363113522876712,0.0248473771249667,0.0235893769526809,0.0123955257343102,0.0236440685192744,103
221,7.33333333333333,120.452481512893,0.99603201804798,123.481080153243,1,91271,0.0362430769290649,0.0341844761178602,0.0334889029212451,0.0141702962342316,0.0330175792892186,103
222,7.36666666666667,120.550662991125,0.996843889208045,123.109375057551,1,90499,0.0307079561628247,0.0358906377175695,0.0354291012986237,0.013559935131382,0.0344905512691666,103
223,7.4,120.305767878377,0.994818830277776,122.037458032521,1,91142,0.0449014274705646,0.0288644675715298,0.028230589484434,0.010320680106411,0.0271484378540195,103
224,7.43333333333333,120.345177580889,0.995144712526371,121.881387132211,1,89816,0.0398046960144274,0.0147859848502805,0.0137866249348922,0.00481384915594986,0.012948820167652,103
225,7.46666666666667,120.168047637014,0.993680009655673,118.705376167521,1,85259,0.0198076225839305,-0.0023447017170903,-0.00353288525695877,-0.00205394070105896,-0.00391777067355586,103
226,7.5,121.825838041757,1.00738842231431,125.935114091459,1,89475,-0.0473651039340055,-0.0175627547059521,-0.0184728581840997,-0.00904392938003447,-0.018531254079187,103
227,7.53333333333333,121.34576402106,1.00341864859408,123.138142358946,1,88223,-0.0315623116868247,-0.0267198086145421,-0.0268449680767225,-0.0148414298544977,-0.0269595185135812,103
228,7.56666666666667,121.641739330984,1.00586609410565,127.011836486132,1,86484,-0.0349532390048923,-0.027942135011641,-0.0270087806732356,-0.0183781939120808,-0.0275828723805762,103
229,7.6,120.875918528925,0.999533455463776,122.156467676012,1,86855,-0.00290397355690541,-0.0221118356897952,-0.0202510751580416,-0.0190310377597272,-0.0214120907068765,103
230,7.63333333333333,120.503911368652,0.996457295986434,121.509165334242,1,76302,-0.0130725289896145,-0.0122012183003444,-0.00995179759246008,-0.0167762509547231,-0.0114438417414737,103
231,7.66666666666667,120.560243741715,0.996923113265737,121.962342885238,1,79321,-0.00395707581315774,-0.00186665442647195,4.05970818525767e-06,-0.0121493109180011,-0.00129814953219762,103
232,7.7,120.315878666488,0.994902437261705,119.755080788327,1,81303,0.00720962637115763,0.00598160844391835,0.00678910266369668,-0.0061219962952412,0.00614683767167087,103
233,7.73333333333333,120.61070175508,0.997340354955137,121.471388345344,1,83812,0.00575205152034131,0.0100116282041544,0.00947700567615198,0.000135658615533705,0.00962207001691447,103
234,7.76666666666667,120.548903622566,0.996829340836815,120.390168240106,1,81986,-0.00456638134239973,0.010463564656361,0.00889464741070738,0.00551076552441367,0.00951830782535422,103
235,7.8,120.667084340455,0.997806587444401,120.008565774518,1,81526,-0.0181277045480759,0.00850300910521096,0.00672694391110337,0.00917230053554679,0.00725457588380215,103
236,7.83333333333333,120.641500472771,0.997595032223295,120.889849534273,1,83740,-0.00698320534869579,0.00540877893655954,0.00445542515121187,0.0107209653556521,0.00438117054985832,103
237,7.86666666666667,120.58735674931,0.997147313077402,121.031933151061,1,84489,0.00453467215020753,0.00205495542131604,0.00270723991506447,0.0102221077438426,0.00188522637548226,103
238,7.9,120.677439022084,0.997892211204989,120.357530372726,1,82393,-0.0116196367102193,-0.00113070776228075,0.00127845724715792,0.00813581310093349,-1.15439593959021e-07,103
239,7.93333333333333,120.713898713346,0.998193699554658,119.854573749243,1,82037,-0.0165209225844101,-0.00388940320886634,-0.000322719869316992,0.00516953550550303,-0.00150144170853057,103
240,7.96666666666667,120.816068934644,0.999038553977132,120.28212645363,1,81864,-0.0237898929229385,-0.00586070552593875,-0.00224468647262489,0.00208196329906288,-0.00281808499382488,103
241,8,121.336906380153,1.00334540399308,125.441209741946,1,84569,-0.0263747010268758,-0.00656118197754288,-0.00400061370159761,-0.000486104882026494,-0.00377450287110001,103
242,8.03333333333333,120.776614977402,0.998712305782335,119.274076809453,1,81240,-0.025758716493868,-0.00562721158426717,-0.00469185290620175,-0.00213917937133045,-0.00385233753404942,103
243,8.06666666666667,120.829789957612,0.999152014306253,120.205901362235,1,80456,-0.0269568470154025,-0.00313861362227859,-0.00359131494532474,-0.00277298727710879,-0.00255763610802976,103
244,8.1,120.686694904372,0.99796874889851,118.652310832846,1,80339,-0.0238855719221625,0.000218284063794035,-0.000714058902998765,-0.00254188580015924,0.00011499751172148,103
245,8.13333333333333,120.586529602368,0.997140473327593,119.678861933009,1,84459,0.000947470487087987,0.00329439460293866,0.00298913758251646,-0.00176268709012545,0.00344899812660974,103
246,8.16666666666667,120.533370624277,0.996700897126589,117.739361305245,1,80414,-0.0239200069330163,0.00489565105812443,0.0059638351103853,-0.000806863754359777,0.00617086791536666,103
247,8.2,120.643031985981,0.997607696438877,118.961085653001,1,82052,-0.0209333058312413,0.00428995913779007,0.00676471709272716,2.89212876750472e-05,0.00701266873050494,103
248,8.23333333333333,120.660084719336,0.997748706970202,119.271515991797,1,80781,-0.0241298934750354,0.00157577287539713,0.00479348371566796,0.000574555086551271,0.00534536462849748,103
249,8.26666666666667,120.704207667025,0.998113563451995,120.83313768914,1,82633,-0.0118100226975644,-0.00225342500393757,0.000682347069244817,0.000824692163930194,0.00161184149104374,103
250,8.3,120.789481275492,0.998818698317311,120.764613127979,1,81810,-0.0179752042760066,-0.00560745786573094,-0.00389034059171993,0.000893123983204987,-0.00274678586707775,103
251,8.33333333333333,120.925002680221,0.999939336568551,122.005274014056,1,80963,-0.0286141875910619,-0.00689609331674428,-0.006894328475785,0.000952714642196155,-0.00582894336489625,103
252,8.36666666666667,121.5981500368,1.00550565045097,125.552949252228,1,82066,-0.0520302591520072,-0.00521860285258035,-0.00684470225505335,0.00114417097154783,-0.00609940405989176,103
253,8.4,121.737811971129,1.00666052710065,132.067365690771,1,87646,-0.00983826163759782,-0.000835356775599346,-0.00348895673360633,0.00152618418248513,-0.00308796233891359,103
254,8.43333333333333,121.632941364758,1.00579334295976,131.210467878338,1,86162,-0.00999201458056764,0.00484625862600337,0.0020349997933899,0.00202128418034003,0.00230073332149312,103
255,8.46666666666667,121.429587495934,1.00411179217892,129.843539543995,1,86271,-0.00180264707704825,0.00980778342303531,0.00763771493902875,0.00245582891604871,0.00808918859302446,103
256,8.5,121.077386526942,1.00119941181533,126.970512760331,1,85212,0.002374278560626,0.0122264821824707,0.0111057514687096,0.00259282882192154,0.0119519970119723,103
257,8.53333333333333,121.494629952182,1.00464963389162,130.785105005726,1,87027,-0.00131163475652651,0.0111633083627236,0.0109518959586241,0.00221925762343874,0.0121344228603325,103
258,8.56666666666667,121.678334415583,1.00616870203457,131.967535384013,1,86833,-0.015376033118276,0.00683948091554338,0.00694829364859688,0.00121680170999827,0.00814892493184315,103
259,8.6,121.77765438098,1.00698998744375,132.782006907063,1,86385,-0.0227475169486364,0.000454235386739366,0.000172522941855386,-0.000385149153716518,0.00099896055690199,103
260,8.63333333333333,121.626108946273,1.00573684509865,132.740697472674,1,86455,-0.0122334315834209,-0.0062832041555449,-0.00739614309891502,-0.00239544825761714,-0.00716457336937218,103
261,8.66666666666667,121.621745889847,1.0057007666066,132.511948661101,1,88406,-0.0101307107912885,-0.0116692135150239,-0.0135468585230592,-0.00449216044456137,-0.0138207118655448,103
262,8.7,121.522641554331,1.0048812642596,131.459084515319,1,87917,-0.0135318198797014,-0.0144202807607666,-0.0165427961085442,-0.00628362377054035,-0.0169836626203286,103
263,8.73333333333333,121.542359528281,1.00504431389659,130.937335517584,1,87902,-0.0195425725375287,-0.0139585017813449,-0.0156574128987658,-0.00739648557892201,-0.0159028003483143,103
264,8.76666666666667,121.604415258506,1.00555745811273,131.074736794026,1,87574,-0.0237693811142243,-0.0105694833433874,-0.0113934391860667,-0.00755891595078286,-0.011290965055235,103
265,8.8,121.586430162312,1.00540873779222,131.474896945746,1,90082,-0.00961399457516499,-0.00537595815891276,-0.00530891814220793,-0.00666137341403356,-0.0050015981079306,103
266,8.83333333333333,121.418127194654,1.00401702595353,130.516417135373,1,87297,-0.00944252384952482,-4.06252395775672e-05,0.000524897550006334,-0.00479081115041547,0.000704378974878125,103
267,8.86666666666667,119.789354330117,0.990548561851921,123.789477500011,1,73563,0.0303099478314013,0.0037965383435091,0.00427925049817474,-0.0022002503032173,0.00405036813668766,103
268,8.9,119.122665288648,0.985035652337359,114.923314425939,1,66288,-0.0161638956732375,0.0051640438713951,0.0050671027141323,0.000712187045521907,0.00436948013443218,103
269,8.93333333333333,119.879008848903,0.991289922844667,124.575887392901,1,76798,0.0443280437165448,0.00418222245383368,0.00328872206604333,0.00352986398863728,0.00233771919859459,103
270,8.96666666666667,121.308189534646,1.00310794190659,130.732812663464,1,82842,-0.0075914095197136,0.0020092114545432,0.000438689504664363,0.00583373527885957,-0.000448580117707539,103
271,9,121.01045578455,1.00064595570072,128.551069516524,1,81314,-0.000513331301315478,0.00028013313932111,-0.00158196750000527,0.00734268541511286,-0.00216721242512337,103
272,9.03333333333333,120.966781871409,1.00028481232454,128.358087245989,1,81509,0.00315165360428704,0.000290785041413237,-0.00136101550844808,0.00790222640210824,-0.00164826057674455,103
273,9.06666666666667,120.853513808897,0.999348188890411,126.895258039327,1,84522,0.0143415230880861,0.00234029891929951,0.00133710968293745,0.00753301857251399,0.00112872336720137,103
274,9.1,120.602785708183,0.997274896476681,125.472587094244,1,82449,0.0180512242715478,0.00557554829176075,0.00543125873972169,0.00639437724990519,0.00501016966452466,103
275,9.13333333333333,120.558873647932,0.996911783841398,124.965902734396,1,81639,0.0182181889575863,0.00841191339931278,0.00901800630000044,0.00474390291974077,0.00821066113726925,103
276,9.16666666666667,120.575655649358,0.997050555666918,124.929850697266,1,81222,0.0162256589434464,0.00931036169576398,0.0102783479977028,0.00287478112088732,0.00913919645502907,103
277,9.2,120.378092203497,0.995416886395825,124.152700005656,1,82506,0.0288023720975654,0.00753040366544743,0.00836732659316716,0.00105975602262753,0.00715554156272283,103
278,9.23333333333333,120.119375304687,0.993277533917669,119.570991772293,1,77948,0.00511477810072081,0.00350693349356489,0.00385659488841026,-0.000507153009222615,0.00288249154181062,103
279,9.26666666666667,121.032057665951,1.00082458353183,128.142312034751,1,87095,0.0110057554331411,-0.00132015875414927,-0.00149136405711104,-0.00172092336166289,-0.00203834731788085,103
280,9.3,120.88714375872,0.999626277862664,127.07159861121,1,84294,0.00600635222428969,-0.00514460659566424,-0.00551896344366961,-0.00258305831766266,-0.00568378636571933,103
281,9.33333333333333,120.751947947013,0.998508331968361,123.563922497673,1,82733,-0.00799681595430402,-0.00660748628012842,-0.00666423717161931,-0.00316606884226347,-0.00669503353047355,102.935377514013
282,9.36666666666667,121.156880326807,1.00185675294195,127.154697499691,1,88909,0.00105373580151902,-0.00540841838374477,-0.00467414110957971,-0.00357683231198479,-0.00487456491121632,102.803494889548
283,9.4,121.045688301374,1.00093729643851,127.594536992235,1,86802,0.00187073265658744,-0.00242322697039042,-0.0006996913140459,-0.00391742296565151,-0.00124955973669523,102.671612265084
284,9.43333333333333,120.892996351341,0.99967467345872,127.593018295666,1,85175,0.00500152877036486,0.00073489449148865,0.00326912079039775,-0.00423926971454968,0.00242328371232085,102.53972964062
285,9.46666666666667,120.883116305829,0.99959297450535,128.061330904537,1,87835,0.0160856464192938,0.00250144878986651,0.00535111693296319,-0.00452488245973838,0.00446269836316422,102.407847016156
286,9.5,120.846211891587,0.999287808702785,127.979227378871,1,87503,0.0168050852260555,0.00210402037686786,0.0046456101734351,-0.00468618983691397,0.00402107167067764,102.275964391691
287,9.53333333333333,120.810710005218,0.998994240524859,124.214556015854,1,81831,-0.0135760229165303,-0.000107434331206529,0.00161704585661066,-0.00458963210469116,0.0014397344268381,102.144081767227
288,9.56666666666667,119.897280976502,0.991441016652766,118.595381717935,1,73274,-0.018248744935969,-0.00288832237660828,-0.00216857082295038,-0.0040907965137857,-0.00193234771084879,102.012199142763
289,9.6,119.483569582544,0.988020001249529,117.560786908142,1,72554,0.00150864432654152,-0.00472821330867564,-0.00479876582285421,-0.00308807079943774,-0.00436669274303324,101.880316518299
290,9.63333333333333,119.195471358811,0.985637692046957,115.019052002282,1,69529,-0.00701172213727497,-0.00453895199006089,-0.00488457186284038,-0.00156620249258085,-0.00452699708290953,101.748433893834
291,9.66666666666667,119.272824000493,0.986277327750838,115.353549647418,1,69960,-0.00720632619481965,-0.00209192247116729,-0.0021484914547859,0.00038431669384853,-0.00203682417432511,101.61655126937
292,9.7,119.056059037387,0.984484879468049,114.017610062893,1,68900,-0.00722738658363387,0.00193129957306198,0.00250153625041583,0.00255540357931199,0.00237329298221144,101.484668644906
293,9.73333333333333,119.006463131959,0.98407476662397,114.097653714629,1,68818,-0.00344406663512209,0.00623535701929589,0.00739719160323872,0.00465497804477218,0.00719794847217459,101.352786020442
294,9.76666666666667,118.902698142762,0.983216724927406,112.825771387125,1,68016,-0.00846793208022745,0.00941031971158767,0.0108104315209141,0.00635080578014476,0.0107699540077767,101.220903395978
295,9.8,119.367163352416,0.987057428035171,116.600048446227,1,71557,0.00282082387350191,0.0104472684233236,0.0116172497436616,0.0073403665024445,0.0119067452660002,101.089020771513
296,9.83333333333333,119.505060733667,0.988197713442375,117.705684342505,1,73377,0.00534014432282581,0.00908581243894925,0.00966149973503341,0.00741044697662947,0.010308352480055,100.957138147049
297,9.86666666666667,121.618866873343,1.00567695976939,130.300078302319,1,92377,-0.015295172152473,0.00586161192049505,0.00570654926294085,0.00649166289019683,0.00658739902094025,100.825255522585
298,9.9,121.618085040498,1.00567049472577,130.409472702666,1,91871,-0.0173559763224997,0.00183627820338549,0.00104307330754649,0.00468695070078842,0.00195840475359264,100.693372898121
299,9.93333333333333,121.77739905296,1.00698787611421,131.068787558979,1,91911,-0.0244722284156389,-0.00186180535337985,-0.00304582192962933,0.00225490569536143,-0.00226314712902966,100.561490273656
300,9.96666666666667,121.694144231482,1.00629943477363,130.890191928669,1,91666,-0.020108049112469,-0.00446322693017752,-0.00572908458882939,-0.000422497699155292,-0.00511966851141738,100.429607649192
301,10,121.863429840314,1.00769927215741,131.849148055363,1,93805,-0.0211702124681163,-0.00575856703456162,-0.00682241391942132,-0.00291626074747121,-0.00629006706931565,100.297725024728
302,10.0333333333333,121.772684705205,1.00694889276369,132.740361087712,1,91409,-0.0187132629314064,-0.00602242608656544,-0.0067050037438525,-0.00482491370481496,-0.00608487297379027,100.165842400264
303,10.0666666666667,121.846033439837,1.00755541981286,132.800169713462,1,91134,-0.0267504509918122,-0.00575616049008985,-0.00604730973086113,-0.00585737168220788,-0.00522182921079956,100.0339597758
304,10.1,121.918590936875,1.00815540404972,133.246992590628,1,90471,-0.0265561678085455,-0.00540909095882511,-0.00549052145346897,-0.00588541101655272,-0.00447041385737248,99.9020771513353
305,10.1333333333333,121.932360010894,1.00826926171716,133.756373009616,1,92591,-0.0203645900897957,-0.00520134613782915,-0.00539989289859582,-0.00497247857498202,-0.00432224005630345,99.7701945268711
306,10.1666666666667,121.990084807947,1.00874659307121,133.712106132278,1,89423,-0.0317902428545473,-0.00508787094273353,-0.00575819972106875,-0.00336265129108689,-0.00480470813926345,99.6383119024069
307,10.2,121.731424780964,1.00660771087113,133.067012303365,1,92197,-0.00770469825159092,-0.00483670145985058,-0.00621078518847154,-0.00142031876710603,-0.00548765740710968,99.5064292779426
308,10.2333333333333,121.723445489933,1.00654172942144,130.901979936339,1,87023,-0.0324557846039959,-0.00417063521708124,-0.00623696708924806,0.000425514268195387,-0.00572330993245057,99.3745466534784
309,10.2666666666667,121.769731687699,1.00692447400578,133.753443766982,1,91518,-0.00691630691888223,-0.00292480581066304,-0.00539739486432184,0.00179915348087856,-0.00495780440853916,99.2426640290142
310,10.3,121.684792507127,1.00622210455374,132.797458499429,1,89055,-0.0133703000844028,-0.00117825909499001,-0.00358174996453232,0.00242763780277443,-0.00307896533784703,99.1107814045499
311,10.3333333333333,121.675325577496,1.00614382169143,132.840024427205,1,88426,-0.0149234543037562,0.000685096693243358,-0.00115943781572104,0.00222420468192504,-0.000547256016094596,99
312,10.3666666666667,121.576471266488,1.00532638681878,132.389357848331,1,87783,-0.0135763398158275,0.00203412062950313,0.00106059084063327,0.00129067905619807,0.00169217867608694,99
313,10.4,121.575554908165,1.00531880937232,132.395788778581,1,88842,-0.00910933736769337,0.00219691140703736,0.00210195655364315,-9.7655145493361e-05,0.00258141696158891,99
314,10.4333333333333,121.598702295842,1.0055102171289,132.601377812394,1,91159,-0.00213159060047263,0.000784470277858239,0.00126277300645678,-0.00155402636157672,0.0014428011703227,99
315,10.4666666666667,121.590004480334,1.00543829413798,132.393157523766,1,91273,-0.0027522552788779,-0.00199588359363126,-0.00144891754719297,-0.0026674591378576,-0.00160326209592259,99
316,10.5,121.551725424494,1.0051217613048,132.439944262452,1,90663,-0.000341843643775652,-0.00522809149604752,-0.00511746598608572,-0.00309262570459798,-0.00550984983403581,99
317,10.5333333333333,121.58170433932,1.00536965955196,131.440378498205,1,91273,-0.00983659454893115,-0.00751842941568688,-0.00812829686578841,-0.0026341257292649,-0.00859323816626134,99
318,10.5666666666667,121.892224663541,1.00793737904843,132.136359614193,1,90408,-0.0280369795809439,-0.00754153000987289,-0.00877346964121441,-0.00129578167013779,-0.00917802583639145,99
319,10.6,120.748081798765,0.998476362453131,125.676045515798,1,86329,0.0103640958664284,-0.00467189910833541,-0.00603013829519256,0.000720594832289715,-0.00634249854482417,99
320,10.6333333333333,120.903961802768,0.999765347727745,125.454246224705,1,86991,0.00349577223435316,0.00061733079658692,-0.000155841011598408,0.00303339813985207,-0.000466329407025367,99
321,10.6666666666667,120.886936652675,0.999624565284814,127.071785253961,1,86378,0.00735045386785349,0.00681081800326315,0.0072179843020019,0.00517956614233131,0.00675933713933373,99
322,10.7,120.850414591109,0.99932256118969,126.641153807272,1,89027,0.0215122321439016,0.0118675148535399,0.0136070910203087,0.00669269519916001,0.0128711145038484,99
323,10.7333333333333,120.748749000468,0.998481879601889,125.679895678035,1,86527,0.0196477663760315,0.0139931486441532,0.016639645147352,0.00720702353848226,0.0155935026786166,99
324,10.7666666666667,120.602464570456,0.997272240960961,124.505069206661,1,89659,0.0356379373789675,0.0123539559822663,0.0150672525504621,0.0065420453051799,0.0138077273139706,99
325,10.8,120.409636016835,0.995677724924532,120.694874971658,1,82328,-0.00226347754577549,0.00743485203877737,0.00936522674443673,0.00472508147405126,0.00807047803186054,99
326,10.8333333333333,120.736837342921,0.998383381072383,124.047930983522,1,90220,0.0264511731169486,0.000885071046468252,0.00161954318561022,0.00201909896298692,0.000481917051297696,99
327,10.8666666666667,120.536966494988,0.99673063169341,120.049030454784,1,85865,0.00432875994905069,-0.00509612218658693,-0.00529250867721671,-0.00116014505428627,-0.00617480161052761,99
328,10.9,120.546025820145,0.996805544038969,120.158872442298,1,82219,-0.0126180401421696,-0.008592654975238,-0.00889355555130661,-0.00429164826718555,-0.00956230236487756,99
329,10.9333333333333,120.738498994441,0.998397121412939,124.858094687537,1,89952,0.0277922903688674,-0.00869342044750491,-0.00814504975692845,-0.00685739354454893,-0.00876113832331154,99
330,10.9666666666667,120.521641740545,0.996603909969609,119.969701735708,1,82656,-0.00941222173961975,-0.0058116194840974,-0.0038560832242009,-0.00845039740879275,-0.00461285956231734,99
331,11,120.609806754906,0.997332954121058,120.297676121201,1,84686,-0.00342369464465397,-0.00146114573737509,0.00174114031568406,-0.00881739238024334,0.000754447868205113,99
332,11.0333333333333,120.815017590862,0.999029860324197,125.326232892941,1,88633,0.0213899880214594,0.00243976168349899,0.00606708216433336,-0.00792916969907799,0.00493152604437564,99
333,11.0666666666667,120.71268572121,0.998183669217464,125.206394003196,1,89292,0.0279415504623892,0.0044571704197115,0.00742097973175225,-0.0059627446356894,0.00636590789273158,99
334,11.1,120.792341734958,0.998842351704756,124.69903099698,1,89955,0.0250294812497414,0.00430893910677058,0.00576345306565039,-0.00326439573056016,0.00503573389707593,99
335,11.1333333333333,120.901889068339,0.999748208106959,125.242079606984,1,87664,0.0101127919683239,0.00294721087693563,0.0026605545776452,-0.000285444762292847,0.00236823333520956,99
336,11.1666666666667,120.835833909443,0.999201992268217,122.390861221624,1,85460,-0.0079607128425756,0.00197389316992037,0.00040837305439828,0.00250343245416749,0.000443561233692752,99
337,11.2,120.891571043329,0.999662887463134,125.029085312125,1,88143,0.00834412842200583,0.00269300186991065,0.000782599244572426,0.00469823530981601,0.000886489250529196,99
338,11.2333333333333,120.812971319616,0.99901293952977,124.618521162985,1,86834,0.00799012030575375,0.00533520940575778,0.0040616339042634,0.00601774828981128,0.00398674682637363,99
339,11.2666666666667,120.671309577405,0.997841526295251,124.281597669598,1,89255,0.0244186393483525,0.00889290106913747,0.00883352443864916,0.00635748112573694,0.00851749711340931,99
340,11.3,120.613254075296,0.997361460312398,123.19741929063,1,87082,0.0155634760419952,0.0116424511055541,0.012686449716138,0.00578032758816753,0.0122974799334404,99
341,11.3333333333333,120.588253361394,0.997154727240505,123.864942593809,1,88318,0.0208955974976011,0.0120455003514492,0.0134225914844738,0.00450676242180262,0.0132690240144304,99
342,11.3666666666667,120.809473264807,0.998984013811117,124.821730343933,1,87420,0.0100176278427531,0.00953863518172151,0.0101710447999883,0.00284836219920096,0.0105062275025237,99
343,11.4,120.855108787085,0.999361377903404,125.059504264149,1,87708,0.00835115919787999,0.00481289562003044,0.00383867876698979,0.00115280287408932,0.00470692314316635,99
344,11.4333333333333,121.068560889203,1.00112643185131,126.925227863082,1,86748,-0.00161168434967074,-0.00053223760490039,-0.00331543742483332,-0.000274952711108359,-0.00211231962330549,99
345,11.4666666666667,122.08227211816,1.00950889793597,135.268860216456,1,91997,-0.0193158883408895,-0.00475879522328131,-0.00875247579687989,-0.00122603206999711,-0.00753903900462725,99
346,11.5,121.335223671226,1.003331489527,129.122099409584,1,87396,-0.00465875029288343,-0.00678368466770287,-0.0108295308133088,-0.00161888467130643,-0.00986365819797482,99
347,11.5333333333333,121.351056915836,1.00346241600011,128.873670677182,1,86855,-0.00894687774326663,-0.00660507398412236,-0.0095037416657588,-0.00151488174053298,-0.0088349722701103,99
348,11.5666666666667,121.249466005569,1.0026223519508,128.1963164265,1,87578,-0.0054577835264078,-0.00517991360151158,-0.00624604277085805,-0.00108133378152497,-0.00569529606940782,99
349,11.6,121.167912469743,1.00194797868885,127.624346935554,1,86579,-0.00527934745827041,-0.00385940185415178,-0.00324699803102895,-0.000554771395123808,-0.00253491901765456,99
350,11.6333333333333,121.032211364989,1.00082585448251,127.187161531279,1,85680,-0.00126840362171654,-0.00369909496975095,-0.00233553576299845,-0.000171861208591004,-0.0012615985341442,99
351,11.6666666666667,121.398551947601,1.00385515653764,128.715555200353,1,87587,-0.011848163645465,-0.00499106456112068,-0.00414368711671131,-0.000114917733818106,-0.00271914374962954,99
352,11.7,121.476041200389,1.00449592189059,129.695857754263,1,87698,-0.0133870054179788,-0.00722178263477276,-0.00789725850986424,-0.000460063499023864,-0.00634183857030881,99
353,11.7333333333333,121.484243246187,1.00456374531877,130.254758231901,1,88811,-0.00991001793232082,-0.00943013090318815,-0.0118870990845202,-0.00116074702052714,-0.0105017905937192,99
354,11.7666666666667,121.563445145425,1.00521867269378,132.130845230107,1,86438,-0.0153627608695428,-0.010745496486408,-0.0143477418040608,-0.00205565576904526,-0.0133400344472214,99
355,11.8,121.628898088224,1.00575990875538,132.278501603312,1,85656,-0.0242011779563898,-0.0108167895601804,-0.0142965797972622,-0.00290846216998554,-0.0136731408465666,99
356,11.8333333333333,121.213691926557,1.00232653298829,129.898412473256,1,84597,-0.00382625529638192,-0.00992099393372449,-0.0119375936406953,-0.00346325118398756,-0.0115245937588515,99
357,11.8666666666667,121.06431647353,1.00109133440993,129.340555293748,1,84880,0.00469720654410311,-0.00872094195901976,-0.00846787253164297,-0.00351521229736968,-0.00804806420190213,99
358,11.9,121.313794044697,1.00315428608636,131.662320226286,1,83670,-0.0103560119110044,-0.00783397206750568,-0.00541867488527537,-0.00296092888430375,-0.00488655115915923,99
359,11.9333333333333,121.512736117418,1.00479935534254,133.077188836767,1,85483,-0.0137675826121932,-0.0074637073002068,-0.00387225832290955,-0.00183067098518813,-0.00330620397710038,99
360,11.9666666666667,121.302618406829,1.00306187376742,132.122710880052,1,85404,-0.00303577813290978,-0.00728228395385002,-0.00393069101106817,-0.000289288843839235,-0.00353236985087965,99
361,12,121.205803538746,1.00226130322523,132.541496043135,1,83273,0.0016830221827131,-0.00659416594905911,-0.00467616921287562,0.00140022664932347,-0.00461974487669533,99
362,12.0333333333333,121.063767219905,1.00108679258406,132.051050567595,1,80750,0.000195939831925562,-0.00468262551625278,-0.00463279410546555,0.00293760840192248,-0.00493226751605098,99
363,12.0666666666667,121.170783809518,1.00197172204652,133.810234456588,1,83626,0.0125014969282382,-0.00118895451263341,-0.00251938660241337,0.00405904856239933,-0.00300348314362565,99
364,12.1,121.174596580875,1.0020032501836,132.473508102428,1,84378,0.0017374535726149,0.00362208545049893,0.0020452875489531,0.00459446477101155,0.00161945032264804,99
365,12.1333333333333,120.635093746109,0.997542054444791,127.156879667668,1,86901,0.0239200782835542,0.00882607839250111,0.00821382142614587,0.00452124618299514,0.00800003066560399,99
366,12.1666666666667,120.574751693073,0.997043080773985,126.755088347993,1,85948,0.0231313575436121,0.0130832872772069,0.0141393025045847,0.00394916187158283,0.0140811988275318,99
367,12.2,120.547581777997,0.996818410389418,126.9514205972,1,85633,0.0228608695958352,0.0151127346318491,0.0177080792201992,0.00309946820440686,0.017566230535829,99
368,12.2333333333333,120.649898917042,0.997664479687484,127.643631146217,1,88747,0.0301213439527865,0.0142358391582881,0.0174891938127114,0.00222847723469778,0.0169868500193722,99
369,12.2666666666667,120.670078103705,0.997831343132405,128.145372474105,1,88467,0.0291231626192685,0.0107653562814208,0.0134843083331568,0.00154960041841857,0.0124941187548922,99
370,12.3,120.687856879425,0.997978357371018,128.303344547336,1,86499,0.0187815657858967,0.00603743395668547,0.00730552152265419,0.00116253239499131,0.0059515075740328,99
371,12.3333333333333,120.68347247642,0.997942102362251,127.890142268192,1,86433,0.0191982654397955,0.00200261793196061,0.00162763490419929,0.00101377691551388,0.000234252051119312,99
372,12.3666666666667,120.823406143341,0.999099225992296,128.768941045113,1,87174,0.0144304257324024,0.000475098249833769,-0.000919988659410301,0.000898519334041934,-0.00201235103590459,99
373,12.4,120.990997023529,1.00048504951792,131.742160974636,1,88457,0.0182353528758061,0.00231508816787385,0.00102637855709861,0.000521095078223964,0.000390164513912765,99
374,12.4333333333333,120.854972542959,0.999360251288908,128.946630602664,1,87622,0.0163330726218838,0.00689993339399615,0.00678971240594617,-0.000418411870818668,0.00647980410632776,99
375,12.4666666666667,120.739042059394,0.998401612064138,128.085943176385,1,88543,0.0269684090451874,0.0121721181221199,0.0137382449585634,-0.00210902242049942,0.0134232953702387,99
376,12.5,120.736986350453,0.99838461322859,128.137240339387,1,88866,0.0279867509399159,0.0153437887986408,0.0182923732783622,-0.00454094343514088,0.017652595320718,99
377,12.5333333333333,120.784773874722,0.998779772412003,128.56109852213,1,87378,0.0217442288699599,0.0140555292931328,0.0174844450612283,-0.00745001017556906,0.0164290100100927,99
378,12.5666666666667,120.597801017868,0.997233677640084,127.498091662756,1,85240,0.0214386521088443,0.00754238061435529,0.0104017012441512,-0.0103314398676898,0.00913724771216755,99
379,12.6,120.485723085589,0.996306895496078,126.808735431034,1,86857,0.0312011828301177,-0.00273282485962896,-0.00117172977995339,-0.0125166217673148,-0.00227108485900172,99
380,12.6333333333333,120.503949696555,0.996457612923194,126.824053728312,1,86013,0.0253152108955788,-0.0133808571350237,-0.0132846261594527,-0.0133065730142822,-0.0139187395768004,99
381,12.6666666666667,122.556499449446,1.01343032487431,138.715251674458,1,93911,-0.051917112123693,-0.0203433120481184,-0.0213658592512099,-0.0121460863374779,-0.0215091070166537,99
382,12.7,122.568659239502,1.01353087523306,138.048481402711,1,94978,-0.0544484675600763,-0.0206178664351819,-0.0221355659016259,-0.00876260633582989,-0.0220411752593662,99
383,12.7333333333333,120.535255572312,0.996716483925398,126.85412369352,1,86779,0.0216749426209564,-0.0136176590527073,-0.0150153271804069,-0.00328926675584861,-0.0150387317503464,99
384,12.7666666666667,120.589137787919,0.99716204064016,127.315937967541,1,87782,0.0219249947233322,-0.00145928231044651,-0.00238862714865548,0.00370147729145016,-0.00275413799271235,99
385,12.8,120.594558045346,0.997206861218989,127.130671887284,1,87346,0.0178689667641567,0.0119334886501906,0.011386777819111,0.0112759955677485,0.0107281186723199,99
386,12.8333333333333,120.474944591766,0.996217767195699,126.050707506372,1,86713,0.0186900273301756,0.0223886600496845,0.021725719099403,0.0182618403313584,0.0210430822942214,99
387,12.8666666666667,120.531076300963,0.996681925168084,126.05290526878,1,87370,0.0181109788210139,0.0269480365246751,0.0255204361420087,0.0234626615125614,0.0251296937711609,99
388,12.9,120.549516188224,0.996834406195377,125.98957462165,1,87287,0.0157148603353692,0.0246805582617673,0.0220953458023934,0.0258762674082518,0.0221679564005978,99
389,12.9333333333333,120.562305483408,0.996940161986635,126.931998736206,1,87567,0.0210588025378919,0.0166814113400587,0.0131064052842558,0.0248914681407445,0.0135828861160938,99
390,12.9666666666667,120.563109993673,0.99694681455181,126.05696713745,1,86664,0.0148503678552891,0.00540614596466933,0.00156538512240158,0.0204191337813525,0.00221132969250337,99
391,13,122.236798651995,1.01078669124836,136.469624383809,1,96020,-0.0319294746413543,-0.00633564735344451,-0.00948506209011207,0.0129282804111987,-0.00893105124683452,99
392,13.0333333333333,122.219452110726,1.01064325119391,136.672666544951,1,93113,-0.0405113432121966,-0.0163322482762377,-0.0180423913654885,0.00339252867054181,-0.0177070797329041,99
393,13.0666666666667,122.037929619821,1.00914222597081,134.972521127879,1,92374,-0.0335590378646708,-0.023506902872058,-0.0235513866232321,-0.00687624725708769,-0.0233597449296513,99
394,13.1,121.753263414227,1.00678829642392,133.104804067989,1,93740,-0.0188869044453337,-0.0278665251060937,-0.0265927446114519,-0.0164291265452471,-0.0263156027114941,99
395,13.1333333333333,121.803060591103,1.00720007359908,133.011887137985,1,91191,-0.0333044706862207,-0.0299923805144146,-0.0281391380538487,-0.0239240887416362,-0.027544692995822,99
396,13.1666666666667,122.266919924012,1.01103576665948,133.680078468159,1,89548,-0.0639703404744583,-0.0304368311803218,-0.0288252830196419,-0.0283366674862811,-0.0278326702178282,99
397,13.2,122.383356130131,1.01199858774791,136.893106635135,1,98104,-0.0426893726985624,-0.0293730049504651,-0.0285920265503234,-0.0291100892530878,-0.0273228555452191,99
398,13.2333333333333,122.477030665554,1.01277319060694,137.131323751582,1,97964,-0.0487788230005288,-0.0266095747333888,-0.0268086595142409,-0.0262438680944762,-0.0255168310824715,99
399,13.2666666666667,121.360181286198,1.00353786621011,128.968814181406,1,85370,-0.0381523415164549,-0.0218431149149989,-0.0227185816654355,-0.0202553848048288,-0.0216209142215714,99
400,13.3,121.331475353171,1.00330049435986,129.084153302742,1,84556,-0.0411964552200097,-0.0149400345358417,-0.0159298395845972,-0.0120983795526561,-0.0150872328677308,99
401,13.3333333333333,121.226968409979,1.00243631738136,131.797357241152,1,88897,-0.00792122720204436,-0.00611343184102858,-0.00671628430655917,-0.00297666470295681,-0.00601378258077446,99
402,13.3666666666667,121.083497411402,1.00124994324901,131.36464927061,1,87836,-0.00349385803040203,0.00401832605470018,0.00396060220385274,0.00583702291596573,0.00469817310814948,99
403,13.4,120.738183964041,0.998394516399232,126.516267430848,1,81656,-0.0168657955159839,0.0144398470307634,0.0146597736773359,0.0132093052869583,0.0155303829962986,99
404,13.4333333333333,120.604471060325,0.997288832799735,125.956155793845,1,81227,-0.0135845695496863,0.0238002782221237,0.0237869175632492,0.0182994321538594,0.0247365639434337,99
405,13.4666666666667,120.693679590251,0.998026505871915,128.357134967339,1,87515,0.0183317017609712,0.0305964120719999,0.0299422793292861,0.0206651279071253,0.0308129205051228,99
406,13.5,120.29927523288,0.994765142028971,122.388770241727,1,85220,0.0170020240316904,0.0335408724381098,0.0322304053971289,0.0202874234751899,0.0328709459162441,99
407,13.5333333333333,120.626468226229,0.997470729272701,125.366739264344,1,90912,0.0211685043611813,0.0320368771995995,0.0304832575540746,0.0175431497421114,0.0308491425091012,99
408,13.5666666666667,120.438943699087,0.99592007269131,124.394019711565,1,89795,0.0267319765456715,0.0265215248682348,0.0253373910653676,0.0130999966738012,0.0255056958659725,99
409,13.6,121.043625576586,1.00092023958831,128.02023115739,1,85281,-0.0217720013810541,0.0184373254179882,0.0181138607782792,0.00777953391640476,0.0182174761750619,99
410,13.6333333333333,121.001255738664,1.00056987972324,127.431766811998,1,85093,-0.0218268244240107,0.00978784127279087,0.0105014968761136,0.00242697547031059,0.0106506009165816,99
411,13.6666666666667,121.197673209472,1.00219407282721,129.710773879766,1,90673,-0.00635187971366769,0.00248347403932719,0.00412042290561784,-0.00223876213517878,0.00434089150424505,99
412,13.7,121.153940066943,1.00183243967809,129.857531579679,1,88691,-0.0115483098958886,-0.00221437969207892,9.61286011058651e-05,-0.00570800210961799,0.000325297183074916,99
413,13.7333333333333,121.045699422133,1.00093738839703,129.396886763659,1,88461,-0.00786334973361491,-0.00395385119717674,-0.00122540191490385,-0.00772576021616027,-0.00110764621217543,99
414,13.7666666666667,120.890878105493,0.999657157500058,125.936317963334,1,82802,-0.0272314788209274,-0.00325233671435072,-0.000335342414524324,-0.00829872114167566,-0.000462914044142498,99
415,13.8,120.927674169798,0.999961427347599,125.545842935088,1,84186,-0.0255315070376885,-0.00124895682871519,0.00163127356165933,-0.00763694917576884,0.0011725977470022,99
416,13.8333333333333,120.707687544115,0.998142338857509,123.837330213817,1,82064,-0.0244572733827009,0.000673664732380255,0.00329591759355814,-0.00609566882118911,0.00250591315341324,99
417,13.8666666666667,120.76256744461,0.998596145515152,126.436372290895,1,89636,0.011474661578615,0.00134145176900163,0.00352915651264986,-0.00407754978052569,0.00251582093941453,99
418,13.9,120.785592536799,0.99878654199973,122.281769789893,1,86353,-0.0176761786104984,0.000203275707178863,0.00186429641862269,-0.00198038908913496,0.000792002636854214,99
419,13.9333333333333,120.614634250737,0.997372873102843,122.170584619215,1,85674,-0.00906399138459824,-0.00246855400034946,-0.0013397444109084,-0.000112903012093689,-0.00231684044227506,99
420,13.9666666666667,120.710667295589,0.99816697868092,121.161581281698,1,84851,-0.026811822185655,-0.00572283001198717,-0.00507305679367943,0.00130233362422215,-0.00590460264982527,99
421,14,120.764449728035,0.998611710280073,122.127388151078,1,88475,-0.0153309964699189,-0.00838061388254073,-0.00812567903132098,0.00216209409072618,-0.00887634796044504,99
422,14.0333333333333,120.678352212425,0.997899762455131,120.555966622871,1,86766,-0.0236648379717386,-0.00957943859937091,-0.00961821502503292,0.00244352228539517,-0.0104270586642812,99
423,14.0666666666667,120.744389862438,0.998445833511396,120.598657116222,1,84743,-0.0306256220249801,-0.00914294912793769,-0.00937091553612316,0.00219396396265831,-0.0103539138430071,99
424,14.1,120.711940599438,0.998177507740896,124.664618125641,1,88681,0.00288856207891697,-0.00760585616202817,-0.0079453817064558,0.0015055026851162,-0.00911390484352672,99
425,14.1333333333333,120.599996695763,0.997251833891052,121.297890989405,1,86328,-0.0154715962583745,-0.00590980491833165,-0.00635093918954231,0.000484615082125867,-0.00760429327437145,99
426,14.1666666666667,120.386634099139,0.995487520071842,120.182187832618,1,83617,-0.0136672914766516,-0.00495069707380379,-0.00556579930780123,-0.000735852111168505,-0.00673540276893205,99
427,14.2,120.219072924561,0.994101942184485,118.780887737352,1,82209,-0.0132968584453796,-0.00520530784271561,-0.00610012514263286,-0.00202154739138241,-0.00704143104157039,99
428,14.2333333333333,120.140667755243,0.993453603038295,119.259143770715,1,79854,-0.0176809677754117,-0.00658053604515814,-0.00779080483642787,-0.00322585589586666,-0.00844365377272586,99
429,14.2666666666667,120.200077226546,0.993944865109856,118.826702311684,1,82667,-0.0114114316283178,-0.00849391017074749,-0.00989677093053917,-0.00419791176411167,-0.0103016445932901,99
430,14.3,120.100134869093,0.993118433086768,117.623277641896,1,82179,-0.0116532329635697,-0.0101039623769164,-0.0114271150078298,-0.00479728330017993,-0.0116948941312584,99
431,14.3333333333333,120.120895349525,0.993290103300293,117.88822976672,1,81590,-0.015064746342297,-0.0105915110895969,-0.0115445651505363,-0.00490828977593479,-0.0118011310235554,99
432,14.3666666666667,120.024781525671,0.992495329753638,118.234425089957,1,81520,-0.00840878978926174,-0.00941428614531665,-0.00987400481345058,-0.00446188168255328,-0.0102068069244673,99.0140082776186
433,14.4,119.959343796287,0.991954219493092,117.985287972272,1,81362,-0.00749408481647129,-0.00647826035572724,-0.00660321692305782,-0.0034566903940588,-0.00702360968655191,99.1413562559694
434,14.4333333333333,119.985408415584,0.992169750090981,119.588406583915,1,81046,-0.0065535660063607,-0.00217957862429682,-0.00235911555065864,-0.00196598693203672,-0.00278442008002351,99.2687042343203
435,14.4666666666667,120.045819514491,0.992669294708087,118.635344607492,1,82253,-0.00652242498589883,0.0027124846506693,0.00206414789730778,-0.000138811998751746,0.00179056185313065,99.3960522126711
436,14.5,119.797568732517,0.990616487457905,118.464188561775,1,81487,0.0087173754775256,0.00731583106466686,0.00599445262508462,0.00182140531320403,0.00604200999796741,99.523400191022
437,14.5333333333333,119.780376720479,0.990474325219077,114.169089327867,1,104637,0.0430182309462246,0.0109453464483128,0.00906112143363304,0.00369063050647443,0.00952821904813884,99.6507481693728
438,14.5666666666667,119.562361919132,0.98867154191547,116.298657853047,1,82902,0.0130547255367628,0.0133136785258459,0.0111976567003819,0.00525120925236017,0.0120356819449009,99.7780961477237
439,14.6,119.671155496412,0.989571165443086,116.201796302826,1,82243,0.0079288665887407,0.0144994938186271,0.012496284406376,0.00634590281976136,0.0135219509382558,99.9054441260745
440,14.6333333333333,120.054844235631,0.992743920910026,118.429058122584,1,84144,0.0012020395810981,0.0147202072483572,0.0130277298424686,0.00687849375139444,0.0140024833747975,100.032792104425
441,14.6666666666667,120.339132739232,0.995094727206356,124.869313427819,1,91231,0.0367819758124122,0.0141079212093676,0.0127578593750988,0.00684514052993508,0.0135321633828205,100.160140082776
442,14.7,120.349679700637,0.995181940945095,126.094415819008,1,90052,0.0351857337040364,0.0126768441823905,0.0116186798938001,0.0063044144777446,0.0122118830751835,100.287488061127
443,14.7333333333333,120.435513892916,0.995891711326573,124.182468348314,1,89674,0.0184921051735714,0.0104800300583419,0.00966889171678382,0.00536947161479718,0.0102516231662091,100.414836039478
444,14.7666666666667,120.309116172736,0.994846517614276,124.099644220339,1,90037,0.0266163017902621,0.0077726896778536,0.00720173809796411,0.00417197790061939,0.00797240398518884,100.542184017829
445,14.8,120.544493338382,0.996792871814335,125.472026197541,1,89983,0.0170168432280879,0.00500092315534397,0.00468963813500966,0.00282882025175339,0.00573233195968755,100.66953199618
446,14.8333333333333,120.249740746164,0.994355537061542,121.692241906398,1,86138,0.00909588658034544,0.00259770477284301,0.00257463819303852,0.00143008561001486,0.00380130145426216,100.79687997453
447,14.8666666666667,120.058039557467,0.992770343303455,120.710436488896,1,85447,0.0166533206157053,0.000736001006915532,0.00103261324018787,2.59420366934544e-05,0.00223870493727831,100.924227952881
448,14.9,120.024365986018,0.992491893620202,121.314552125447,1,85582,0.0226811558141629,-0.000770825766400595,-0.000128843655227879,-0.00136392525932431,0.000866492253552294,101.051575931232
449,14.9333333333333,120.470596221772,0.996181810147028,125.381419138711,1,92737,0.0340525218523504,-0.00233972560297223,-0.00135748985883863,-0.00272512645771743,-0.000631151998869106,101.178923909583
450,14.9666666666667,120.30605915297,0.994821238852652,123.2240107931,1,86475,0.0116310005230238,-0.00434453685545903,-0.00308325249324448,-0.00403492046886832,-0.00253501707377342,101.306271887934
451,15,121.015460194945,1.00068733760437,129.444582443067,1,95009,0.0160043966958976,-0.00687519921177238,-0.00544170761944983,-0.0052309950199195,-0.00490147639730214,101.433619866285
452,15.0333333333333,120.916408672738,0.999868271975203,129.404174036821,1,95543,0.0194289217136152,-0.009663909845415,-0.00815405545670946,-0.00621973016781192,-0.00749784329706268,101.560967844635
453,15.0666666666667,121.017076646037,1.00070070417866,129.608721538504,1,96856,0.0154357423781388,-0.0121942190303725,-0.0106306919201963,-0.00687732333093957,-0.00986467599015773,101.688315822986
454,15.1,120.872898495661,0.999508482546751,128.722929880842,1,95699,0.0189119285994188,-0.0139138856592,-0.0122384054850522,-0.00707754848780604,-0.0115013845676161,101.815663801337
455,15.1333333333333,120.727311685389,0.998304612583967,127.867655559797,1,91685,0.0129023973967068,-0.0144434240381709,-0.0125837641206099,-0.00672922748037844,-0.0120691759761447,101.943011779688
456,15.1666666666667,120.696170867872,0.998047106462669,127.894573874104,1,94088,0.0240073235158635,-0.0136946748949109,-0.0116628370800844,-0.00580123630191558,-0.0115002137288855,102.070359758039
457,15.2,120.801296621562,0.998916400438861,128.497829658452,1,96375,0.0231723844090743,-0.0118628558495629,-0.00980776612232107,-0.00435381897838498,-0.00998495388948096,102.19770773639
458,15.2333333333333,120.737350209053,0.998387622006911,128.433843297913,1,93732,0.0245737360537339,-0.00931257125723829,-0.00747714851809202,-0.00253436532266111,-0.00783662578094165,102.325055714741
459,15.2666666666667,120.754856493819,0.998532382994189,128.506786545797,1,94206,0.027123968866372,-0.00642207700939811,-0.00502321128480079,-0.000565307271129858,-0.00535227397078739,102.452403693091
460,15.3,120.61182645078,0.997349655161436,124.493371802407,1,112298,0.0505649785642708,-0.0034646931385427,-0.00257524043932592,0.00130235721086191,-0.00272702951815861,102.579751671442
461,15.3333333333333,120.666204541246,0.997799312308426,128.212365165951,1,94777,0.0361589492707339,-0.000587451986800582,-0.000101966805143793,0.00282878234381675,-9.35063486816743e-05,102.707099649793
462,15.3666666666667,120.694233437888,0.998031085686071,128.296710530948,1,94686,0.0342301134961294,0.0021064028967464,0.00240093461074833,0.00384938736585328,0.00239561646430391,102.834447628144
463,15.4,120.533522710124,0.996702154737648,123.889444845857,1,110720,0.050675698132975,0.00444045325106852,0.00473980323563342,0.00430248520909241,0.00449295715345412,102.961795606495
464,15.4333333333333,120.500627436024,0.99643014086268,127.550760485148,1,92178,0.0304591942044401,0.00613040586399548,0.0065103985659251,0.00423994961479325,0.00588139781272326,103
465,15.4666666666667,120.343380470692,0.995129852066264,123.353258117199,1,111235,0.0633304504238597,0.00690565388883301,0.00728781611759094,0.0038297146563053,0.00632686049660143,103
466,15.5,120.257987000885,0.994423726057135,122.883918966833,1,110934,0.0658751182745994,0.00673331513627301,0.00692046372165205,0.00329066804394505,0.00583908866711034,103
467,15.5333333333333,120.558608025932,0.996909587390044,127.702200859215,1,94660,0.0418271791043656,0.00597482265360714,0.0057358271486486,0.00285369392776198,0.00478619508430819,103
468,15.5666666666667,120.666173807208,0.997799058165999,128.329723536497,1,96589,0.0338539698522093,0.00531537428319862,0.00449279649817902,0.00269029010068306,0.00380627519346593,103
469,15.6,120.470195994424,0.996178500632372,124.122020314489,1,114959,0.0601602812760411,0.00545749962455735,0.00405821732894681,0.00286711405214922,0.00356572785995702,103
470,15.6333333333333,120.542238260702,0.996774224381391,125.086270187685,1,114323,0.0481354513661632,0.00674020467318275,0.00495738734033475,0.00331466888768867,0.00442902555557253,103
471,15.6666666666667,120.509913241864,0.996506925996649,124.232621664417,1,114098,0.0518994671592556,0.00889929252188949,0.00704046010540599,0.00385162814038735,0.0062410959103654,103
472,15.7,120.530504211076,0.996677194507186,124.957833634037,1,113068,0.0442326093446277,0.0111070631513507,0.00946234255992903,0.00420960651703197,0.00830474645894137,103
473,15.7333333333333,120.227126220421,0.99416853558652,123.560838381853,1,111914,0.0587003522559737,0.0122944237844273,0.0110167651550361,0.00411730349316247,0.00964233836284904,103
474,15.7666666666667,120.286219921318,0.994657186525205,124.062425360981,1,110532,0.0558080764851003,0.0116258946122316,0.0106783932045569,0.00336229340434238,0.00938410827368078,103
475,15.8,120.286331100312,0.994658105873955,124.118455130271,1,111716,0.0553199204173191,0.00890693682735699,0.00808869286886717,0.00186843725897507,0.00716045693552328,103
476,15.8333333333333,120.390479035828,0.995519314186848,124.711045046016,1,111338,0.0517698707986733,0.00470633669933989,0.00373963603998132,-0.000271932843537513,0.0032791914669925,103
477,15.8666666666667,120.624033348975,0.997450595061474,129.686902009037,1,94274,0.0241969999691711,0.000107722789978856,-0.00123817097104126,-0.00279801751062255,-0.00137878505651645,103
478,15.9,120.626811528934,0.997473568072544,129.953547419753,1,94261,0.0286741547774871,-0.00378677323739868,-0.00556979406829784,-0.00531431365899306,-0.0056936797651352,103
479,15.9333333333333,120.366513372778,0.995321140040235,123.246579068039,1,105405,0.0276744661234838,-0.0063231720039487,-0.00835583818248046,-0.00737994257691741,-0.00873650401352341,103
480,15.9666666666667,120.441284287842,0.995939427222751,125.476395659504,1,109542,0.0393804992827993,-0.00747506704218275,-0.00936292085071925,-0.00858924772208375,-0.0100653817015851,103
481,16,120.58956894178,0.997165605888835,129.049868766404,1,95758,0.0282039722463503,-0.00766923645537822,-0.00897135887658504,-0.00867709893044177,-0.00981528133444297,103
482,16.0333333333333,120.625671439421,0.997464140573468,128.515908129905,1,96963,0.0264315641637218,-0.0074128053524463,-0.00785681011229688,-0.00757531947564649,-0.00852392180507557,103
483,16.0666666666667,120.676489769198,0.997884361750529,128.294204413591,1,98529,0.0288531737933231,-0.00697349231435452,-0.00660844605877761,-0.00544669325097846,-0.0068369588312852,103
484,16.1,120.669892697974,0.99782980999633,127.839079260403,1,95836,0.0183432858094994,-0.00629113770930622,-0.00548641609642235,-0.00265967712874934,-0.00522099624054003,103
485,16.1333333333333,120.707176520374,0.998138113157872,127.406111618159,1,98610,0.0279198538932146,-0.00513414884209681,-0.00441520551868117,0.000286341895534388,-0.00381889572266767,103
486,16.1666666666667,120.745436677987,0.998454489719972,127.10392413164,1,97924,0.0259504329546598,-0.00337223524809887,-0.0031711757838188,0.00285511294771388,-0.0025074883267031,103
487,16.2,120.682449167372,0.99793364053097,127.025916508618,1,95962,0.025958116739214,-0.00118817614254693,-0.00162974612596032,0.00459606661668885,-0.00108549877954344,103
488,16.2333333333333,120.641503247853,0.997595055170688,126.410030147734,1,95419,0.0289000532363144,0.000897467276416839,7.07117116341133e-05,0.00523638625352233,0.000494479481800746,103
489,16.2666666666667,120.452393937436,0.996031293878931,125.005272513527,1,94136,0.0331907568277534,0.00220517842967963,0.00152742967054771,0.00474345543396889,0.00199670942946627,103
490,16.3,120.317849865772,0.994918737279573,124.119482652433,1,92549,0.0390540345301709,0.00218582072358637,0.00222383813319453,0.00333246448075027,0.00294245809859395,103
491,16.3333333333333,120.428015623954,0.995829707490096,123.974786102472,1,90347,0.019009514591118,0.000672742323023704,0.00175557574927464,0.00141156910513392,0.00281006168655739,103
492,16.3666666666667,120.609564175488,0.997330948210812,125.100793052562,1,94193,0.0258702432923403,-0.00202043241325772,3.74604041319726e-05,-0.000503029329981941,0.0013352791379458,103
493,16.4,120.61551343303,0.997380143137484,124.759666372072,1,90520,0.0135239588963669,-0.00517953581737398,-0.00258124278450966,-0.00192221885377475,-0.00125946774180812,103
494,16.4333333333333,120.625462846591,0.997462415701265,125.288499171523,1,93344,0.0269280633767148,-0.00788395175187493,-0.00533264416064019,-0.00248179703818473,-0.00417763448619737,103
495,16.4666666666667,120.300982276401,0.994779257719917,120.507077161618,1,85133,0.000471356230379749,-0.00923169140193141,-0.00719072308386466,-0.00205118674769421,-0.00625354691716992,103
496,16.5,120.221221147556,0.994119706026773,123.410828862651,1,90031,0.0423648786296931,-0.00855200790949436,-0.00716560861507331,-0.000735076779120051,-0.00632337884709553,103
497,16.5333333333333,119.923980629404,0.991661798398624,119.448938820505,1,83759,0.0187009092877131,-0.00560621221636165,-0.00467939882570429,0.00111720894190156,-0.0037544735860765,103
498,16.5666666666667,119.63837601543,0.989300109071453,117.808834428578,1,80956,0.0195189434653993,-0.000769598871572738,8.94345514562323e-05,0.0030341127583453,0.00120112048000653,103
499,16.6,119.614287263546,0.989100917092589,117.540976661155,1,81038,0.021382735100189,0.00488215482558717,0.00605550675568551,0.00450950051491776,0.00728997585927404,103
500,16.6333333333333,119.488679551369,0.988062256025002,116.77136932902,1,80380,0.0233350114129653,0.00972221936166356,0.0114170390030401,0.00514410369770928,0.0125821374518335,103
501,16.6666666666667,119.801487687643,0.990648893637784,121.143689424858,1,86738,0.0521900236501345,0.0120463438392654,0.0142182465435933,0.00474637065661635,0.0151185468931672,103
502,16.7,119.758680549334,0.990294917697885,120.124483597305,1,85931,0.0447679095454379,0.0107662424612188,0.0131250817095112,0.00337496725627109,0.0136783344618447,103
503,16.7333333333333,119.814095629082,0.990753149799195,119.843228432754,1,85160,0.0349491538578413,0.00600845419863841,0.00809340066531739,0.00134188691941685,0.00837460586644128,103
504,16.7666666666667,119.456502719354,0.98779618300995,114.722281346341,1,78930,0.00573560057528799,-0.000734337635810762,0.000587247427267546,-0.000877056094699448,0.000749964655340312,103
505,16.8,119.817733251874,0.990783229617607,120.650509693414,1,86588,0.0414808365684325,-0.00705717957997085,-0.00683116691452555,-0.00273702852833976,-0.00665730035900484,103
506,16.8333333333333,119.257244285583,0.986148497736808,114.022608201925,1,77494,0.0028651347759685,-0.0105518976378163,-0.0114353264903731,-0.00379034530648771,-0.0112432745352213,103
507,16.8666666666667,119.147546925911,0.985241400754194,113.577751619107,1,77306,0.00428044175131026,-0.00978630114788429,-0.0114258884050629,-0.0037668875517628,-0.0113119301360936,103
508,16.9,119.21783086067,0.985822584707362,114.834488868346,1,77886,0.0086445451520365,-0.00491594438013311,-0.00670776915151144,-0.00268183077392481,-0.00681239409041691,103
509,16.9333333333333,119.677650994034,0.989624877276357,120.946050163543,1,86012,0.0444826936953622,0.00235780668082665,0.00100630152906275,-0.000815229638631466,0.000600217495617478,103
510,16.9666666666667,119.684350183391,0.98968027345426,121.268443378104,1,85026,0.0423601973828349,0.00946550396288399,0.0088353016655791,0.00132775642959655,0.00813988950629345,103
511,17,119.817500663869,0.990781306327218,121.453326424545,1,84916,0.0350837891978673,0.0139604360178935,0.0138511077789402,0.00314688003371539,0.0129686865959726,103
512,17.0333333333333,119.353802255126,0.986946943962693,115.872816788356,1,77657,0.00277835980845409,0.0143854194186423,0.0142099448635603,0.004070389238259,0.0132671363723973,103
513,17.0666666666667,119.741098614706,0.990149531155336,122.091637422769,1,84918,0.0431801279134598,0.0107061187342734,0.00982925472738172,0.00371609727233093,0.00892887859808082,103
514,17.1,119.729518331745,0.990053772791023,122.078333630052,1,84255,0.0424163517165581,0.00422688812262424,0.00234911965734061,0.0019671460339697,0.00152292339603315,103
515,17.1333333333333,119.29378423574,0.986450649754248,115.770347371145,1,76009,0.00213982055711637,-0.00293022119202426,-0.00558324566476034,-0.000965371443934595,-0.00637402919078378,103
516,17.1666666666667,118.858470215554,0.982851000360858,113.560433774098,1,73433,-0.00181858454481088,-0.0086039401756099,-0.0113933911797221,-0.00457650668514791,-0.0122330887080489,103
517,17.2,118.654058888526,0.981160705366395,112.9926413116,1,69940,-0.00772779859710071,-0.0113595261739092,-0.013564870019014,-0.00816816989689962,-0.0145399546955679,103
518,17.2333333333333,118.858062241301,0.982847626786369,116.895704883799,1,70553,0.0103544018270834,-0.010934878570854,-0.0121161990512265,-0.0109707466846277,-0.0132518863276481,103
519,17.2666666666667,118.849798851391,0.982779296098407,115.368139944888,1,70523,-0.00430202936167734,-0.00817467260524127,-0.00838659754531643,-0.0123168930326736,-0.00962036910927465,103
520,17.3,118.751433885384,0.981965907662022,114.932442377896,1,68391,-0.00726214668087599,-0.0045010819573306,-0.00426478442060469,-0.0117665020723065,-0.00545345540283454,103
521,17.3333333333333,118.678015967541,0.981358808530878,116.577412305813,1,69864,0.0123357459646407,-0.00119111301025027,-0.00124757593481105,-0.00921074338878346,-0.00223327266304014,103
522,17.3666666666667,118.568511075757,0.980453303081924,115.297218708013,1,67978,0.0032704437655573,0.00118731506282042,0.000218794851980384,-0.00490620154539467,-0.000480685495225089,103
523,17.4,118.613776926045,0.980827610324457,115.81654306626,1,68770,0.00758897575300566,0.00291173390944572,0.000811458867482154,0.000572081669742617,0.000358520766682367,103
524,17.4333333333333,121.278817062206,1.00286505838413,128.324092753109,1,90218,-0.0244787876129797,0.00475905938431729,0.00180799505033885,0.00640826485861819,0.00144410197790194,103
525,17.4666666666667,121.491147684843,1.00462083872093,132.292906364005,1,98680,0.00187604696421961,0.00737920315899194,0.00425359502704398,0.0117113527257511,0.0038032943909492,103
526,17.5,121.579757067489,1.00535355739227,132.675304728824,1,98749,-0.000905517220985086,0.0107484313178169,0.00825448277595851,0.0156433686259822,0.00762038120994483,103
527,17.5333333333333,121.433987587291,1.00414817691603,132.243448955255,1,96435,0.00366573442531926,0.0140113120904442,0.012762348727085,0.0175888589185851,0.0119995419902945,103
528,17.5666666666667,121.512942331764,1.00480106054685,131.634053998138,1,96670,-0.00559862013204437,0.0157925305317099,0.0159622162471174,0.0172396288264857,0.01524448624092,103
529,17.6,121.40569662027,1.00391423645568,131.847469323058,1,97576,0.00359234607916004,0.0148105697470968,0.016077691998626,0.0146589512271948,0.0156077808951269,103
530,17.6333333333333,121.323982817719,1.00323853793428,127.53350286635,1,91231,-0.0284763284136311,0.0104939747429869,0.0122118535496204,0.0102484744544001,0.0120957225148387,103
531,17.6666666666667,121.695180557691,1.00630800424494,133.167890885449,1,96388,-0.0101989790380439,0.00332416557748564,0.00483444601771374,0.00469726970859159,0.00503289452845725,103
532,17.7,121.830001403897,1.007422849517,133.25473962083,1,91674,-0.0377902699068724,-0.00523920815560771,-0.00430361353686945,-0.00116763295352474,-0.0039605267506864,103
533,17.7333333333333,121.657213950577,1.00599405507738,129.458705804355,1,91506,-0.0412640689114261,-0.0132224231330913,-0.0127876511729866,-0.00649060050689575,-0.0124836539086503,103
534,17.7666666666667,121.754784679493,1.00680087589837,129.568791357955,1,88405,-0.0593309251592573,-0.0188083814738163,-0.0184179590893542,-0.0105519342345916,-0.0182442191710949,103
535,17.8,121.769286033636,1.00692078885367,128.758420160851,1,86954,-0.0660143186850262,-0.0209402584865863,-0.0199774704903085,-0.0128613369787316,-0.0198652942634682,103
536,17.8333333333333,121.560767257387,1.00519652900531,128.532223218185,1,87018,-0.0561352641986324,-0.0196055246998807,-0.0175812295373277,-0.0132332826530202,-0.0173445752347771,103
537,17.8666666666667,121.514439094958,1.00481343741154,129.443470904142,1,90620,-0.0404080735546364,-0.015696757656598,-0.0124969706405252,-0.0117952361620129,-0.0119513743851631,103
538,17.9,121.47274372223,1.00446865475766,128.420604997475,1,87791,-0.0531128594653454,-0.0105576851937538,-0.00655802277689541,-0.00895119442416112,-0.00565753125992684,103
539,17.9333333333333,121.246076738442,1.00259432580693,127.328131148573,1,84708,-0.05020395470526,-0.00546579304013948,-0.00144696030089312,-0.00528978917249422,-0.000336767499261922,103
540,17.9666666666667,121.281376872311,1.00288622567593,127.043963254593,1,84328,-0.0556011343096392,-0.00128268375278556,0.00185439953264405,-0.00148626567661937,0.00289942133065037,103
541,18,121.004998271096,1.00060082704856,127.402035026845,1,85306,-0.0329938091483568,0.00164226307120657,0.00326301498520686,0.00182811560581821,0.00401005109440739,103
542,18.0333333333333,121.08127705781,1.00123158295255,126.894357444693,1,83142,-0.048718110774248,0.0033730356072183,0.00342023941949417,0.00414942485891185,0.00382754352861832,103
543,18.0666666666667,120.863788872889,0.999433154285854,125.492298509376,1,83209,-0.0387590817109043,0.00420588433864559,0.00326694025155413,0.00519306128936203,0.00353839774849777,103
544,18.1,120.701452337568,0.998090779393709,125.240112024204,1,81530,-0.0397704083980956,0.00449574505102666,0.00356397670839935,0.00490658834703676,0.00402971884721803,103
545,18.1333333333333,120.78827608629,0.998808732503255,125.834553824677,1,82617,-0.0370750877107071,0.00453217868292393,0.00455080440416162,0.00347591260204946,0.00546529174910365,103
546,18.1666666666667,120.839109242844,0.999229076284222,125.716457196575,1,81555,-0.0413563120700446,0.00447155414979905,0.00586902369931657,0.00126929216544039,0.00723156238743677,103
547,18.2,120.851204290019,0.999329091278473,125.761872608598,1,81455,-0.0427977515970062,0.00432280062554021,0.00677407173149528,-0.00123022777870939,0.00830784312850493,103
548,18.2333333333333,120.729074650349,0.998319190694142,124.656028589831,1,80215,-0.0440221477130327,0.0039924133734584,0.00654671099964745,-0.00351393264630383,0.0078523347638692,103
549,18.2666666666667,120.779899992034,0.998739469853284,126.105380165356,1,82166,-0.0342058022141583,0.00339226533242898,0.00492842620432055,-0.00512776137948811,0.00573167061721852,103
550,18.3,120.802735530346,0.998928298900407,125.552873986735,1,81420,-0.0381083497184191,0.00257998519149008,0.0023745598058801,-0.00574759329507254,0.00270382234422892,103
551,18.3333333333333,120.724100193235,0.998278056476766,125.281154846583,1,81119,-0.0359738016636466,0.00185507346445525,-2.75875607592314e-05,-0.00521937482980845,0.000152929270990219,103
552,18.3666666666667,120.807533785868,0.998967976091535,125.863065872445,1,82093,-0.0371834150891543,0.00172286272959093,-0.00099170469952644,-0.00358353191026686,-0.000548248206197628,103
553,18.4,120.838162776801,0.999221249874418,126.84948803141,1,83371,-0.0332486962396608,0.00269087692846467,0.000342505083066812,-0.00105836336294774,0.00126256716752472,103
554,18.4333333333333,120.88486569907,0.999607440389813,129.826573383586,1,86761,-0.0117734955493984,0.00495666143316722,0.00388144053227108,0.00199981973604303,0.00512239153443045,103
555,18.4666666666667,121.019379163477,1.0007197438951,126.312800665533,1,82941,-0.0434029741751047,0.00813467765774535,0.00844024641203989,0.00514220570869878,0.00953437083949539,103
556,18.5,120.682187650239,0.997931478023112,125.485107349583,1,82177,-0.0293938031164043,0.0112086122624614,0.0121376123765872,0.00791530219765717,0.0126007640970957,103
557,18.5333333333333,120.715625034731,0.998207974655936,126.114147955036,1,83237,-0.0266957230938156,0.0128408840213915,0.0132058371920767,0.00990132153103528,0.0128515533590563,103
558,18.5666666666667,121.088146923149,1.00128839046495,132.904358016553,1,91020,0.00383597149526804,0.0119898324932753,0.0108519670431006,0.0108024202438329,0.00994448132105372,103
559,18.6,120.742657518465,0.998431508608811,131.344580765743,1,90065,0.0156224412488537,0.00853273929808551,0.00571192800420399,0.0104660349611523,0.00480446921744699,103
560,18.6333333333333,120.437471521179,0.995907899124483,125.105510620915,1,81600,-0.0236263883712053,0.00346201019061861,-0.000407122824768077,0.0089112340431553,-0.000838120299022393,103
561,18.6666666666667,120.695517290842,0.998041701977513,125.877108561587,1,81671,-0.0350234506766234,-0.0015931912415874,-0.00543367266865405,0.00633107169097555,-0.00531117354332572,103
562,18.7,121.006309714919,1.00061167149129,127.580636009079,1,83416,-0.0439840818986186,-0.00530966540022822,-0.00812953574749408,0.00304966245073305,-0.00783385205228061,103
563,18.7333333333333,121.009859315881,1.00064102344955,126.91179472167,1,81983,-0.0484029339240899,-0.00746824595164465,-0.008748466261052,-0.000517971845864507,-0.00885230832954519,103
564,18.7666666666667,121.101612446739,1.00139973804757,131.583296559434,1,90644,-0.00397125336213366,-0.00901726257060123,-0.00882977597766589,-0.00392561655815822,-0.00969789125119341,103
565,18.8,121.189969628988,1.00213037125196,132.036714731983,1,91126,-0.00501502280558208,-0.0112969865387294,-0.0101975100081294,-0.00677368955246234,-0.0117447746224723,103
566,18.8333333333333,121.245708838987,1.00259128361443,132.450999967088,1,91153,-0.00840972849677035,-0.014933239157343,-0.0137315135832747,-0.00874367259644054,-0.0154810077604336,103
567,18.8666666666667,121.088445270583,1.00129085752577,127.183040652376,1,82570,-0.0486464637799211,-0.0191772968891655,-0.0186505040560808,-0.00966214847147749,-0.0200732244674025,103
568,18.9,121.568406087534,1.00525969515441,131.29537366548,1,87110,-0.0461833276061774,-0.02217549974703,-0.0227694942356455,-0.00949841685874253,-0.0236229759549774,103
569,18.9333333333333,121.501863507726,1.00470944878987,130.779388805474,1,89246,-0.038208143570059,-0.0220152642784722,-0.023624584486312,-0.00837762271384862,-0.0240871296201188,103
570,18.9666666666667,121.598636488109,1.00550967295904,130.126927408425,1,87315,-0.0473184902723671,-0.0178843147118206,-0.0198447825680806,-0.00654494649169066,-0.0203531325587349,103
571,19,120.581741937127,0.997100883708416,124.555974903243,1,83198,-0.00937561318134383,-0.0106316419634638,-0.0120005061084557,-0.00431425033061829,-0.0129237713870651,103
572,19.0333333333333,120.791575615717,0.998836016598293,127.624137875726,1,83128,-0.0134423139598594,-0.00241422849006499,-0.00245086396161467,-0.00203279542373227,-0.00385122074275584,103
573,19.0666666666667,120.782783101085,0.998763310532116,128.64590562043,1,86749,0.00930567332176113,0.00433669945593865,0.00573450802021933,-7.03661056784856e-08,0.00413653268290056,103
574,19.1,121.093715541772,1.00133443785539,131.872933244389,1,83948,-0.0121832705090044,0.00803180225257659,0.01020802560823,0.00154503121934172,0.00882173009105673,103
575,19.1333333333333,121.159890247035,1.0018816422334,130.631517070947,1,83358,-0.0193509928445417,0.00853691190639942,0.0103920765271462,0.0024741822894018,0.00949987607224297,103
576,19.1666666666667,121.336680388438,1.00334353524799,133.49675278429,1,86587,-0.0124928352447924,0.0070348446213328,0.00763341140611914,0.00276032565822077,0.00722972200561763,103
577,19.2,121.198374907106,1.00219987522581,132.479226363824,1,85501,-0.00955683138734198,0.00530516948665089,0.00443341957802322,0.0024752663572633,0.00427253478737977,103
578,19.2333333333333,121.100950328428,1.00139426293381,129.697369790691,1,80057,-0.0310865572016359,0.00484542499418405,0.00318307202909689,0.00176157405544624,0.00296497680939667,103
579,19.2666666666667,121.273492857852,1.00282103207649,132.735513739546,1,84816,-0.0128148440398002,0.00625642790906381,0.00504289609874491,0.000813525709632405,0.00461795521457301,103
580,19.3,121.306935290622,1.00309757045397,132.808608882192,1,85617,-0.0133898411525171,0.00912186208585775,0.00949101873812816,-0.000166715334148147,0.00893424661948082,103
581,19.3333333333333,121.214429430427,1.00233263147177,131.55837916652,1,85273,-0.011320701738635,0.0123527001373656,0.0147023562074326,-0.000977083030448779,0.0142488972386099,103
582,19.3666666666667,121.207599065527,1.00227615059193,131.313798741077,1,82981,-0.0241480949720325,0.0147653839066047,0.0185141923330839,-0.00144907833429699,0.0183929797613199,103
583,19.4,121.335252835312,1.00333173068736,131.569288477778,1,84865,-0.0237020280804021,0.0156060925219032,0.019477445631353,-0.00145145605535716,0.0197779569050946,103
584,19.4333333333333,121.107991634123,1.00145248810139,130.52173045765,1,81882,-0.0253322000671148,0.0148192075803007,0.0174948408972476,-0.000908508542731075,0.0181260578621062,103
585,19.4666666666667,121.290205230951,1.00295922813933,131.294528332522,1,86226,-0.0199800350885264,0.013000116539515,0.0137786399737656,0.000198037891466569,0.0145419109360516,103
586,19.5,121.085092548714,1.00126313357781,128.49791679545,1,80885,-0.0356864509619972,0.0110882417315084,0.0101928334496964,0.00181224083180275,0.0108942142227883,103
587,19.5333333333333,120.992051996961,1.00049377318474,128.5639128958,1,79491,-0.0343837802109153,0.00992825352853758,0.00832185775783608,0.00380723900333448,0.00886957177766496,103.007010834927
588,19.5666666666667,120.939528183947,1.00005944921885,128.579423665081,1,76946,-0.0473846552761317,0.00987075437452593,0.00871384919832998,0.00597160398342505,0.00913679777092232,103.038878266412
589,19.6,120.897170831731,0.99970919259917,128.298723523146,1,76356,-0.0480694466713969,0.0105865472439857,0.0106445652976848,0.00802849193541135,0.011054290478454,103.070745697897
590,19.6333333333333,120.905580429672,0.999778732294015,127.483626435196,1,79722,-0.0365925522205661,0.01119615146829,0.0124912651780894,0.00965139232720175,0.0130069780371225,103.102613129382
591,19.6666666666667,120.942886745905,1.00008722145901,128.046206928708,1,78639,-0.041332626544365,0.0106685246021415,0.0125150635969012,0.0105033396409341,0.0131998794041799,103.134480560867
592,19.7,121.157966720766,1.00186573642783,128.582895645609,1,83012,-0.0455553375444682,0.0082918310097302,0.00966367221581014,0.0102933660891025,0.0105019712939821,103.166347992352
593,19.7333333333333,121.37844308086,1.00368887457425,129.949683149228,1,84372,-0.0537496010102203,0.00397087786712157,0.00401390497019077,0.0088299676952187,0.00493302467308372,103.198215423837
594,19.7666666666667,121.722628971736,1.00653497756164,130.07857261136,1,84546,-0.0761861463994133,-0.00178998929801118,-0.00333222573301048,0.00607434233041135,-0.00241074629068965,103.230082855322
595,19.8,121.944626451671,1.00837069397997,131.527881923198,1,89885,-0.0713322482892482,-0.00816784144271676,-0.0108066158805065,0.00218070028167922,-0.00991550852667174,103.261950286807
596,19.8333333333333,122.191531175457,1.01041237055822,132.879665209134,1,90564,-0.0771723471584382,-0.014371516708033,-0.0170829819850043,-0.0025079435648576,-0.0162045637999865,103.293817718292
597,19.8666666666667,122.759839404598,1.01511176060179,139.069325317027,1,97468,-0.0736240957126024,-0.0198675763531464,-0.0215795398912027,-0.00747641981504107,-0.0206768605060602,103.325685149777
598,19.9,123.024105429697,1.01729699928659,140.737794243711,1,101489,-0.0752050239462647,-0.024409763513493,-0.0245324433164928,-0.0121088487402822,-0.0236017739077757,103.357552581262
599,19.9333333333333,123.228777892804,1.01898945363793,139.567060333316,1,96105,-0.106644910387628,-0.0279262917363093,-0.0266422544590225,-0.0157796604947382,-0.0257355432244137,103.389420012747
600,19.9666666666667,123.153334674221,1.0183656071193,139.202210271635,1,94649,-0.10614380743297,-0.0303574891301466,-0.0285009474225737,-0.0179505574616644,-0.02769366599173,103.421287444232
601,20,123.008561202372,1.01716846272248,141.598353001947,1,100668,-0.0730333572784161,-0.0315069641570709,-0.03010263317541,-0.0182720674140488,-0.0294342831581493,103.453154875717
602,20.0333333333333,123.022640324848,1.0172848842075,140.99056555559,1,97833,-0.0827667375908787,-0.0309603347794295,-0.0306982698374229,-0.0166546598258516,-0.030140061906517,103.485022307202
603,20.0666666666667,122.988647442233,1.01700379411251,140.716260843513,1,97908,-0.0821276071247756,-0.0281525821936422,-0.0290954941678917,-0.0132823880888192,-0.0285698969650162,103.516889738687
604,20.1,122.990759644089,1.01702126009288,141.101566440718,1,96482,-0.0852327373520356,-0.0226387956727003,-0.0242887340358149,-0.00860401356669384,-0.0237472837173296,103.548757170172
605,20.1333333333333,122.617617666182,1.01393571671009,139.817312993306,1,97345,-0.0587403255762557,-0.0144909546599913,-0.0161222287958365,-0.00324399223170771,-0.0155915250113015,103.580624601657
606,20.1666666666667,122.637738489023,1.0141020975395,139.377235721025,1,95029,-0.0670078648972909,-0.00459597160456961,-0.00563614422499598,0.00208680490634694,-0.00521661934071145,103.612492033142
607,20.2,122.259738929583,1.01097638639365,136.828665326111,1,97472,-0.0452816428666309,0.00538975814828677,0.00512877534061768,0.00673047697365528,0.00534312688666081,103.644359464627
608,20.2333333333333,121.344940658209,1.00341184013525,132.093963266033,1,91777,-0.0179227512147027,0.0135170779908092,0.0138347221004997,0.0101774543654836,0.0138274523172685,103.676226896112
609,20.2666666666667,121.27416227414,1.00282656753785,130.759081662307,1,94054,-0.00686175372574449,0.0182843768711126,0.0187604079511964,0.0121567955837182,0.0186138336956573,103.708094327597
610,20.3,121.184315203426,1.0020836143165,129.867962936184,1,89899,-0.0175229696191062,0.0192771814872792,0.0194978685546465,0.0126632735651287,0.0193289223075253,103.739961759082
611,20.3333333333333,121.19629684851,1.00218269157902,129.887746822745,1,90382,-0.0176373952209117,0.0173530412821878,0.0170935330175168,0.0119384802317974,0.0169625053624445,103.771829190567
612,20.3666666666667,121.207611764767,1.00227625560304,131.195495791465,1,88273,-0.0227844951074605,0.0142552124869634,0.013562438460105,0.0103947914575951,0.013416653694988,103.803696622052
613,20.4,121.111747811808,1.00148354826049,129.925535469704,1,90777,-0.0120576890555928,0.0118514999184379,0.0110098746177417,0.00852134748923154,0.0107176623134485,103.835564053537
614,20.4333333333333,121.010641953858,1.00064749515087,129.319371439276,1,90747,-0.00590407294889106,0.0113765258564446,0.0107731166855943,0.00676585040029623,0.0102164800246607,103.867431485022
615,20.4666666666667,121.109364974347,1.00146384437083,130.115420190275,1,90816,-0.00711235916590525,0.0130135818131391,0.0129600692598002,0.00544322978013603,0.0121277754008713,103.899298916507
616,20.5,120.74376584743,0.998440673477167,127.627991146207,1,89152,0.00416673415296209,0.0159511738472391,0.016546651475382,0.00467585044968117,0.0155567906485314,103.931166347992
617,20.5333333333333,120.753838653112,0.998523966381093,126.818733514102,1,90355,0.0076045464926251,0.0188241899646269,0.0199250737217237,0.0043760434529135,0.0189543776758182,103.963033779477
618,20.5666666666667,120.720797684656,0.998250747746856,127.416945385534,1,92387,0.0162187742991857,0.0203038400313432,0.0216078502165471,0.00428751011721751,0.0207788712006808,103.994901210962
619,20.6,120.74473330807,0.998448673493114,127.60603142313,1,92416,0.0184109614732892,0.019575435746295,0.0207670312783585,0.00405433106361384,0.0200620003932588,104
620,20.6333333333333,121.045650203252,1.00093698140183,130.961977505762,1,91253,0.0055115812477633,0.0165322771012993,0.0174156411419212,0.00331806179458016,0.0166829956157584,104
621,20.6666666666667,120.901260890017,0.999743013645924,130.40916017355,1,88812,0.00520309119653972,0.0116705736666892,0.0122351758555201,0.00181564780961584,0.0112912778429902,104
622,20.7,120.988674835276,1.00046584714182,130.750304896918,1,91561,0.0100696866469256,0.00581132653408731,0.00621027780928325,-0.000549528552567419,0.0049728703932225,104
623,20.7333333333333,120.942247087574,1.00008193206879,129.673589806749,1,89314,0.000435818472598326,-0.000179960894271854,0.000275257484733762,-0.00366901956758208,-0.00115917531790393,104
624,20.7666666666667,120.985380489976,1.00043860591478,130.696707585223,1,91564,0.00901448502060775,-0.00557002974156874,-0.00489302110243023,-0.00722978979658392,-0.00627900057323845,104
625,20.8,121.265318937402,1.00275344121926,132.16416490563,1,91802,-0.00508473848050461,-0.00983134925522083,-0.00891922373874504,-0.0107732268518819,-0.00999828768844067,104
626,20.8333333333333,121.224796135973,1.00241835465917,131.463495076963,1,89545,-0.0122866468264271,-0.0126697106416797,-0.0116782396064133,-0.0137645070231808,-0.0123241433116334,104
627,20.8666666666667,121.214461279909,1.0023328948379,131.413422828753,1,89837,-0.0102108014963254,-0.0140413637086983,-0.0132259087449129,-0.0156986300803182,-0.0135223601512002,104
628,20.9,121.179789433144,1.00204619032946,131.618361114177,1,90590,-0.00197747245159108,-0.0141418521742076,-0.0137436806108899,-0.0161903072806575,-0.013930995783033,104
629,20.9333333333333,121.181671324344,1.00206175185103,131.298022768125,1,91795,-0.00137136804550098,-0.0133319058602846,-0.013481773157725,-0.0150502766017957,-0.0138077277313819,104
630,20.9666666666667,121.000480565912,1.00056346975252,127.581122300394,1,86988,-0.016000958309492,-0.01200055039369,-0.012677615921626,-0.0123279889475673,-0.0132429985275452,104
631,21,121.08922200989,1.00129728045047,129.255988039938,1,93645,0.00148081308266712,-0.0104113433123206,-0.011459325144821,-0.00830503253723136,-0.0121455251391091,104
632,21.0333333333333,121.140363452706,1.00172017347728,129.777914562729,1,95852,0.00360221538583061,-0.00859971192163804,-0.00978569053127738,-0.00346518747486595,-0.0103252280899569,104
633,21.0666666666667,121.014990141863,1.00068345069466,129.710557380323,1,93467,0.00259803716825457,-0.00638539722006917,-0.00748520304545022,0.0015914272193703,-0.0076220606001266,104
634,21.1,121.156681607927,1.0018551097183,130.231654666264,1,95969,0.00508974484342928,-0.00352998523852019,-0.00441520194255595,0.00623677228312109,-0.00407113074673769,104
635,21.1333333333333,121.107346365015,1.00144715231517,129.687986773285,1,96169,0.00425332220966834,5.16554537514025e-06,-0.000681941411048973,0.00991701815078555,-1.38962144553696e-05,104
636,21.1666666666667,121.103818380039,1.00141797910137,129.70727650872,1,96003,0.0051244182775052,0.00383435077123734,0.00320704056321481,0.0122413685726486,0.00389906220985982,104
637,21.2,121.128075209686,1.00161856092984,131.839436067444,1,93510,-0.00134268090334544,0.00712388508695248,0.00638779298128006,0.0130365589147143,0.00684329141130875,104
638,21.2333333333333,120.902587759607,0.999753985645654,126.582062658001,1,112473,0.0279467371269682,0.00885857517444028,0.00792191516433455,0.0123774179337122,0.00808997236912824,104
639,21.2666666666667,120.938414718973,1.0000502418804,126.713393482909,1,112719,0.0273661650449928,0.00831298663816692,0.00721435141237862,0.0105537145592868,0.00728393693110405,104
640,21.3,121.14548830621,1.00176255133546,130.834169812103,1,96436,0.00494859100284573,0.00547887488730221,0.00435894000792643,0.00802228046762384,0.00464227072069131,104
641,21.3333333333333,121.151723649058,1.00181411192634,130.845044295349,1,96135,0.00266048458434476,0.00118484991858177,0.000210007223281433,0.00531539038636955,0.000943179607367515,104
642,21.3666666666667,121.275759116723,1.00283977196768,130.830161095139,1,95306,-0.00519847973935628,-0.00318526618057633,-0.00389088775545053,0.00293596548520313,-0.00270342004288164,104
643,21.4,121.236612872933,1.00251606828211,132.174695344954,1,96612,0.00494988108147876,-0.00623420910983529,-0.00662220418498096,0.00127410915184412,-0.00521382847520533,104
644,21.4333333333333,121.147310558069,1.00177761969415,131.030470470043,1,93566,-0.00308084251601826,-0.00708240984720795,-0.00718905135624885,0.000524809781637833,-0.00590337547387728,104
645,21.4666666666667,121.065045295323,1.00109736110056,129.598235632732,1,94387,-0.000170408854868187,-0.00565589420402467,-0.00559808585162426,0.000666414977957866,-0.0046903463874273,104
646,21.5,120.980167409796,1.00039549850256,128.328069830291,1,96577,0.00815195218053377,-0.00264120413877262,-0.0025911535744233,0.00146406961697206,-0.00209247856514527,104
647,21.5333333333333,120.996102429703,1.00052726656443,128.482316232244,1,96680,0.0103729963917036,0.000830855488632981,0.000703997910037217,0.00252598349431537,0.000992235695939335,104
648,21.5666666666667,120.916579719261,0.99986968637374,127.42883652012,1,96283,0.00928269711689955,0.00361340062132966,0.00322244384528226,0.00338608999099329,0.00359849127853968,104
649,21.6,120.725127405364,0.998286550582969,126.319359257653,1,96846,0.0225077944966752,0.00490586994329368,0.00430399107338472,0.0036049220624432,0.00498403848768,104
650,21.6333333333333,120.86433057273,0.999437633648828,126.99208715758,1,94572,0.0154325241435267,0.00442780553258158,0.00380396666563227,0.00285827070775294,0.00478774763022803,104
651,21.6666666666667,120.854172030342,0.999353631780636,126.82600897177,1,94593,0.0147524893129927,0.00237863039685581,0.00198233846673515,0.00101700011361922,0.00305489449752045,104
652,21.7,120.974609823942,1.00034954234306,127.327340597045,1,95727,0.00924259831474017,-0.000744854586870448,-0.000710368875336245,-0.00182812788856359,0.000145092303179563,104
653,21.7333333333333,120.953912911437,1.00017839777824,127.899601905095,1,97213,0.0156803264053322,-0.00434908770264249,-0.00380544826768246,-0.00536778258552744,-0.00337721960205811,104
654,21.7666666666667,120.920113286877,0.999898905750871,128.161176597514,1,95779,0.0131864430314339,-0.00786088636399474,-0.00686565016043893,-0.0091314084933689,-0.00685483596227235,104
655,21.8,121.053261515231,1.00099992000081,129.14407741759,1,97480,0.0140247066278765,-0.010744333235546,-0.00943826273652607,-0.0125623670384201,-0.00961898307569872,104
656,21.8333333333333,121.082070580039,1.0012381446567,129.429437069561,1,97478,0.0141450821784572,-0.0124860466438543,-0.0110145035225828,-0.0151180639050264,-0.0110847708855065,104
657,21.8666666666667,121.07356277303,1.00116779286255,129.837616444422,1,97865,0.0149640245839293,-0.0126382703616481,-0.0110916539406255,-0.0163590505247514,-0.0108583528939298,104
658,21.9,121.015385343561,1.00068671865178,129.790045113744,1,93763,0.0141538212405747,-0.0109501629443052,-0.00934934407870817,-0.0160225916030626,-0.00884841006149743,104
