frame_index,time_s,R_skin_raw,R_normalized,G_skin_raw,G_normalized,B_skin_raw,B_normalized,frame_luminance,face_detected,skin_pixel_count,BVP_detrended,BVP_butterworth,BVP_cheby1,BVP_cheby2,BVP_elliptic,gt_bpm,bisenet_conf,vote_mean,highconf_pct,roi_coverage,green_cv,hair_rej_frac,clust_agree,quality_score,BVP_pca
1,0.0,155.3748779296875,1.0040877235548509,120.8819808959961,0.9995811382767614,108.43507385253906,1.0002505226047527,128.1311492919922,1.0,67591.0,-0.0012067412562153657,-0.00047074374816479436,-0.0006540340236882602,0.00027339207224220366,-0.0006454614051422358,,0.969325602054596,0.7664235376504762,0.37031557455874303,0.882481199080844,0.35734865069389343,0.0658032170461667,0.38732967406903285,0.6925535281301642,-0.0007369266809110833
2,0.03333514788604609,155.2962188720703,1.0035794007477652,120.8774185180664,0.9995434116702779,108.547119140625,1.0012840752550303,128.08401489257812,1.0,67872.0,0.0002782144977888368,0.0001517029619729812,-0.00010863680684768179,0.0003992121722557936,-0.00014018244337153115,,0.969478189945221,0.7653818953323904,0.36922442244224424,0.8861499895550449,0.35818663239479065,0.061024650094004596,0.3878624469589816,0.6932544719295389,-0.0028089987661994147
3,0.06667029577209219,155.29641723632812,1.0035806826481517,120.85182189941406,0.9993317515285521,108.53700256347656,1.0011907557116375,128.1505584716797,1.0,67833.0,0.000800573094144913,0.0005838903199287818,0.0002692137202411498,0.00048693035721025405,0.00021133409027259344,,0.9693562388420105,0.7653747684263804,0.36862589005351376,0.8856407979945686,0.358353853225708,0.061886358888656776,0.3881444134860614,0.6931410786708059,-0.001674999960928264
4,0.10000544365813828,155.2847137451172,1.0035050505253515,120.8936767578125,0.999677852135857,108.54535675048828,1.0012678182305026,128.19354248046875,1.0,67913.0,-0.0002558944060351287,0.0007034847065258045,0.00038898880728880286,0.000525560870137485,0.000326637962750418,,0.9692153334617615,0.7654695468221596,0.36960523022101804,0.8866852935032379,0.35816723108291626,0.06101159390014623,0.38814365438134085,0.6932646185821171,-0.0019982106230048893
5,0.13334059154418437,155.32102966308594,1.0037397369037926,120.85045623779297,0.9993204587817954,108.45816040039062,1.000463482588393,128.17083740234375,1.0,67947.0,-0.00032395914254812475,0.000505696806164553,0.00025474547295920057,0.000513487127380361,0.00020083125245416464,,0.9688006043434143,0.7648166953655055,0.36769835312817345,0.8813183392349897,0.3585514724254608,0.06552784155025487,0.38580069760254315,0.6918391750314226,-0.0033988180545379554
6,0.16667573943023045,155.41342163085938,1.004336806660709,120.86433410644531,0.9994352158005135,108.37644958496094,0.9997097478148347,127.81876373291016,1.0,67985.0,-0.0014191339777018808,9.321963425005382e-05,-4.72234435834233e-05,0.00045689236945320054,-9.94291800234734e-05,,0.9688892960548401,0.7680174548307225,0.37321467970875927,0.8818112248206804,0.3575306534767151,0.06506089731117942,0.38390821504743694,0.6921977144195532,-0.0015703279141041134
7,0.20001088731627656,155.45770263671875,1.0046229662700519,120.82694244384766,0.9991260216560729,108.41596221923828,1.0000742288972118,127.92064666748047,1.0,67663.0,0.0005972429653686717,-0.0003739533889145076,-0.00038938580621699644,0.00036783710894854244,-0.0004606523335042152,,0.968670666217804,0.767238618841415,0.3736015252057993,0.8776346680156167,0.357242226600647,0.06910774738316666,0.38464153229977976,0.6914864572013832,-0.0007626947287699103
8,0.23334603520232264,155.4642333984375,1.0046651703750824,120.97856140136719,1.0003797688979559,108.37157440185547,0.9996647770846476,127.82585906982422,1.0,67818.0,-0.004179419193232503,-0.0007413251094385216,-0.0006506246450629821,0.00025730949069081356,-0.0007611540482157419,,0.9683258533477783,0.7663255576199043,0.37262968533427704,0.8796451223783026,0.3572355806827545,0.06759017860617145,0.38360022412928724,0.6912521911097955,-0.0019802048346337416
9,0.26668118308836875,155.5358123779297,1.0051277391991442,120.96508026123047,1.0002682924537145,108.5481948852539,1.001293998373898,127.96656799316406,1.0,67516.0,-0.0002431359987997428,-0.0009075349568360221,-0.0007501494192480682,0.00013495324477645783,-0.0009012278825818993,,0.9680284261703491,0.7655814917945376,0.37235618223828426,0.8757279790393919,0.35733410716056824,0.07324539216830746,0.38356833935659695,0.690117810025885,-0.0001247638141614188
10,0.3000163309744148,155.5309295654297,1.0050961847280935,121.0257339477539,1.0007698418208444,108.55577850341797,1.0013639528430778,127.90281677246094,1.0,67805.0,-0.0017673610290220576,-0.0008419650053943873,-0.000659170336785902,2.2068448931918855e-06,-0.0008308762398441547,,0.9680027961730957,0.7645503035666003,0.3706806282722513,0.8794765036253032,0.3567337989807129,0.0685629791042453,0.38430794189219086,0.6908022714783528,0.0001303733378406821
11,0.3333514788604609,155.1626434326172,1.002716188749079,120.62220764160156,0.9974330559621197,108.1910629272461,0.997999663663323,128.35006713867188,1.0,67876.0,9.046591851327723e-05,-0.000575467564666508,-0.0003954909017067645,-0.00014217925125274404,-0.0005556495172008542,,0.9587423801422119,0.7640943288742217,0.3720313512876422,0.8803974214301464,0.3576502799987793,0.06927636613616613,0.4294596028051152,0.6973121627896338,-0.0026339134879243588
12,0.366686626746507,155.1243896484375,1.0024689791899395,120.66619110107422,0.9977967581132522,108.18011474609375,0.9978986730564083,128.270751953125,1.0,67829.0,-0.0015499407173275859,-0.00018008200996258122,-1.2703937802999331e-05,-0.0003026297993844838,-0.00013809557766303335,,0.9595914483070374,0.7642896106385174,0.372790399386693,0.8797877997846868,0.3575208783149719,0.0685629791042453,0.42960975394005513,0.6977076583357946,-0.0031035089687581723
13,0.4000217746325531,155.17320251464844,1.0027844252927265,120.64447021484375,0.9976171466606462,108.17768096923828,0.9978762228796796,128.32603454589844,1.0,67532.0,-0.0006433892663455232,0.0002476036530529093,0.0004084261407862346,-0.0004783155232839739,0.0003196227379706394,,0.9604175090789795,0.763573811921262,0.3716756500621927,0.8759355098123144,0.357954740524292,0.07346589361453754,0.42847835100396847,0.696760266876465,-0.003019333106028862
14,0.4333569225185992,155.1683349609375,1.0027529694293977,120.68330383300781,0.9979382644315506,108.0519027709961,0.9967159921161988,128.13876342773438,1.0,68117.0,-0.0038791576545342543,0.0005984231049097059,0.0007689873285555458,-0.000661023856500013,0.0006965857337514195,,0.9600931406021118,0.7647185479885099,0.3743705682869181,0.8835233536972904,0.3568394184112549,0.0653073401040248,0.4286448316866568,0.6982467866689173,-0.0016235656958138115
15,0.4666920704046453,155.18316650390625,1.0028488161352147,120.6256103515625,0.9974611931970556,108.22887420654297,0.9983484507350088,128.41317749023438,1.0,68081.0,0.0008340944805414474,0.0007695182462627183,0.0009704836270245818,-0.0008287713429494614,0.0008896055258226112,,0.961195707321167,0.7662490268944345,0.3768746052496291,0.8807829641896088,0.35756915807724,0.06911095011384806,0.4233927233736285,0.6971695248656886,-0.0009251100534783951
16,0.5000272182906914,155.1630401611328,1.0027187525498518,120.63471221923828,0.9975364571461104,108.17481994628906,0.9978498316060956,128.2480926513672,1.0,68473.0,-0.0004801710711803131,0.0006990062947357195,0.0009476701234552284,-0.0009506452151282369,0.0008457265907192505,,0.9610829949378967,0.7656107760236396,0.3767762475720357,0.8858543779755744,0.35817524790763855,0.0640654108880149,0.42307186774349015,0.6977568117458178,-0.003728460373016256
17,0.5333623661767375,155.1307373046875,1.0025100000023057,120.64313507080078,0.9976061062657722,108.19800567626953,0.9980637064872201,128.25601196289062,1.0,67769.0,-0.0005349034187318025,0.0004070083454655302,0.000706728300781405,-0.0009880581903329642,0.00059390671492181,,0.961323618888855,0.7652269720176875,0.3760568991721879,0.8767465328089422,0.35774362087249756,0.07334144069550817,0.4231728371379244,0.6962762360420549,-0.0025338554030941637
18,0.5666975140627836,155.06143188476562,1.002062123728827,120.68114471435547,0.9979204105358402,108.15672302246094,0.9976828980035859,128.1757049560547,1.0,67923.0,-0.0027648199018419084,1.636077817948062e-05,0.0003473483827920111,-0.0009069844320233554,0.00024767144351670603,,0.9617154598236084,0.7657347290314033,0.3775598839862786,0.8787388739391431,0.35786202549934387,0.07072811012212793,0.4224783946527686,0.6967549920731959,-0.0036389532536337758
19,0.6000326619488296,155.1211700439453,1.0024481729605903,120.63104248046875,0.9975061118321998,108.15100860595703,0.9976301858331474,128.2344970703125,1.0,67843.0,-0.0010732753370822912,-0.00027187617006007897,4.730692493480822e-05,-0.000685832640626952,-1.758232194505205e-05,,0.9614251852035522,0.7659989485527862,0.37738602361334256,0.8777038915338439,0.3580154478549957,0.07224177188987788,0.42275547956310894,0.6965484984216866,-0.003484033160100925
20,0.6333678098348757,155.1020050048828,1.0023243216617155,120.715087890625,0.9982010889175208,108.09616088867188,0.9971242475243604,128.00657653808594,1.0,68153.0,-0.004405060386910492,-0.0002504074886728395,3.870672676163707e-06,-0.00032771588106508007,-2.3570393624498332e-05,,0.9615094065666199,0.7658797118248647,0.37756224964418295,0.881714448354378,0.35840675234794617,0.06793365762782033,0.42178627499889954,0.6970411637859566,-0.00332367443565597
21,0.6667029577209218,155.0956573486328,1.0022833008493492,120.59014129638672,0.9971678972212334,108.04261779785156,0.9966303436363276,128.26998901367188,1.0,67461.0,-0.0020128677303045406,0.00020114951827552403,0.0003500757802909841,0.00013723960898243215,0.0003438057255781729,,0.9607617259025574,0.7660673080248835,0.3770623026637613,0.8727618505485407,0.35919713973999023,0.076743945352929,0.3671454618223863,0.6845539541886247,-0.004070049035760354
22,0.7000381056069679,155.1239013671875,1.0024658237428343,120.62297058105469,0.9974393647591906,107.98821258544922,0.9961284871778548,128.03863525390625,1.0,67974.0,-0.003615768799423519,0.0010451181986769057,0.0010818993110815935,0.0006488416178394629,0.0010725068953137688,,0.9600992202758789,0.7667490511077765,0.37860064142172006,0.8793986752225212,0.3588455319404602,0.06944731939557028,0.36736104981316386,0.6857352541498666,-0.0032919546758728054
23,0.733373253493014,155.05972290039062,1.002051079663959,120.53317260742188,0.9966968193439557,108.09071350097656,0.9970739985394566,128.275390625,1.0,67691.0,9.782886413498004e-05,0.002074459950291156,0.002033171010023452,0.0011285050093119144,0.0020081970367339984,,0.9602405428886414,0.7663992751375122,0.376830006943316,0.8757374249637756,0.3590942919254303,0.0737166218174291,0.3677298311444653,0.6850912974877672,-0.004027012726604093
24,0.76670840137906,155.10528564453125,1.0023455223219528,120.51788330078125,0.9965703910506566,108.05873107910156,0.9967789792891525,128.17758178710938,1.0,67822.0,0.0002990475047573715,0.002973122404305016,0.0029164725760319112,0.0014895857464530572,0.0028845748959181326,,0.9595229625701904,0.7663245947725911,0.3765002506561293,0.8774322086524529,0.35915839672088623,0.07228058373007659,0.367520863436643,0.6850849388875822,-0.003191920009239667
25,0.8000435492651062,155.02377319335938,1.0018187598708468,120.54315185546875,0.996779338409642,108.02645874023438,0.9964812857231253,128.2744903564453,1.0,67387.0,-0.00152315234835243,0.0034263016883399186,0.0034187901751587587,0.001656840060863531,0.003405930233291122,,0.9599846005439758,0.7660429063963871,0.3758440055203526,0.871804491823639,0.359184205532074,0.07920202856551439,0.3670144093074332,0.6839352887062756,-0.004498677796548162
26,0.8333786971511523,155.0397186279297,1.0019218049403724,120.53227996826172,0.9966894380513829,108.05964660644531,0.9967874244966994,128.2552490234375,1.0,67384.0,-0.0005347110628700635,0.0032358744037741314,0.003315110932577075,0.0015825416865824225,0.003347084025622603,,0.9595744013786316,0.7655872808579683,0.3737088923186513,0.8717656799834402,0.359453946352005,0.07909853032498447,0.3693903597293126,0.6842333636101166,-0.004708262986179856
27,0.8667138450371984,155.05813598632812,1.0020408244608676,120.53617095947266,0.996721612916444,108.04032897949219,0.9966092306174604,128.28363037109375,1.0,67105.0,-0.0008286911810765352,0.00239443696822505,0.0025540969262270695,0.001258812735150578,0.0026375890444229754,,0.9598219394683838,0.7654720214589076,0.37348930780120704,0.8681561788449597,0.359076589345932,0.08314789898571724,0.36934654645704496,0.6836155346125717,-0.003669718366954445
28,0.9000489929232445,155.12667846679688,1.0024837703482445,120.52075958251953,0.9965941752156136,107.95336151123047,0.9958070062772373,128.10714721679688,1.0,67387.0,-0.0014030955214426877,0.0010888134064143758,0.0012813398419965667,0.0007242363266142639,0.0013979644836383683,,0.9603205919265747,0.7660181736338858,0.3752949381928265,0.871804491823639,0.3590514361858368,0.0793055268060443,0.36840933711249946,0.6842767658419536,-0.004108843744613719
29,0.9333841408092906,155.26979064941406,1.0034086121732022,120.72771453857422,0.9983054995090427,107.77996063232422,0.9942074839678602,127.73564147949219,1.0,67105.0,-0.008887003315265152,-0.00036757144929707483,-0.00020822053044112436,5.782584273173446e-05,-9.290293053300087e-05,,0.9608902335166931,0.7674539900156471,0.38021011847105285,0.8681561788449597,0.3596258759498596,0.08477799627406334,0.3653528053051188,0.6832194380394764,-0.0013867023925072351
30,0.9667192886953366,155.2274932861328,1.0031352715677238,120.63595581054688,0.9975467404853359,107.80990600585938,0.9944837126313724,127.7922592163086,1.0,67644.0,-0.00621038330541912,-0.0016438745225650264,-0.0015682815594519801,-0.0006303506621206627,-0.001481029384868957,,0.9609962701797485,0.7675773165395304,0.3809946188871149,0.8751293728006624,0.3591884672641754,0.07537259366590768,0.3664183076104311,0.6849885773883843,-0.0021116558448525755
31,1.0000544365813828,155.20152282714844,1.0029674412248217,120.67688751220703,0.9978852074481851,107.81304931640625,0.99451270784395,127.78578186035156,1.0,67458.0,-0.007436269357745967,-0.0024949352099762965,-0.0025105186495173524,-0.0012228635278315784,-0.0024537153645687484,,0.9603214859962463,0.7647672131795585,0.3761155089092472,0.872723038708342,0.3588722050189972,0.07678275719312772,0.39237747932046607,0.6892240688481661,-0.0019342109097215746
32,1.0333895844674288,155.19497680664062,1.0029251385120692,120.63365173339844,0.997527687918182,107.82172393798828,0.9945927261854566,127.80487823486328,1.0,67507.0,-0.006166309074371851,-0.0028179411147800544,-0.002885723175919702,-0.001612678961273207,-0.0028334582178233653,103.0,0.9600892066955566,0.7645775006048755,0.3739167790006962,0.8733569654315877,0.35977718234062195,0.07579952390809357,0.3931888544891641,0.6894476488674021,-0.004149232913227116
33,1.066724732353475,155.13511657714844,1.0025383004185295,120.66984558105469,0.9978269772512214,107.79930114746094,0.9943858889772877,127.98439025878906,1.0,66937.0,-0.007953508844476737,-0.0026515382367794994,-0.0027128043195507427,-0.0017274241470705942,-0.002629950124093491,103.0,0.9607642292976379,0.763738042238722,0.3736647892794717,0.8659827157938315,0.3589153289794922,0.08433812875181122,0.39118872970106217,0.6876823111120764,-0.003084470525538367
34,1.100059880239521,155.15609741210938,1.0026738860363262,120.5956039428711,0.9972130682082605,107.73193359375,0.9937644624552973,127.80987548828125,1.0,67640.0,-0.006959916894955093,-0.002135305962239548,-0.002153360280884142,-0.001541419699838272,-0.0020198635001069756,103.0,0.9616082906723022,0.764217425586438,0.37520697811945597,0.8750776236803974,0.3581099808216095,0.07294038501345478,0.39180958013010053,0.6899370122092305,-0.0016846923795669991
35,1.1333950281255671,155.1140899658203,1.0024024189775664,120.63683319091797,0.9975539956019673,107.76258850097656,0.9940472361546583,127.84895324707031,1.0,67402.0,-0.00783729332937208,-0.0014567174775461857,-0.0014467180024119322,-0.0010837383762349576,-0.001274454625050433,103.0,0.9611470699310303,0.7636667556847967,0.37546363609388445,0.8719985510246325,0.3578907251358032,0.07648519975160423,0.3925996261238539,0.689302411884231,-0.0027977511061369476
36,1.166730176011613,155.2824249267578,1.0034902593670465,120.80272674560547,0.9989257804370453,107.99417114257812,0.9961834514036391,127.90335845947266,1.0,68100.0,-0.007059046915987743,-0.0008027644409796239,-0.0008287921780783406,-0.0004323855933757672,-0.0006552737725410217,103.0,0.9636841416358948,0.7654038179148311,0.3779882525697504,0.8821700606249029,0.3573991358280182,0.06553448365200269,0.38697503671071953,0.6909112889497635,-0.0005686096260950034
37,1.2000653238976593,155.24139404296875,1.0032251032024968,120.78621673583984,0.9987892580684328,108.05845642089844,0.9967764457268885,128.06777954101562,1.0,67258.0,-0.005800735489742526,-0.0003199920562506579,-0.00045940802684634325,0.0002980023830064047,-0.0003242661833527714,103.0,0.9640763998031616,0.7650985756341253,0.3773677480745785,0.8712627597284833,0.3572465479373932,0.07879941965904969,0.3867197954146719,0.6887748670151019,-0.00018102527249315437
38,1.2334004717837053,155.15292358398438,1.0026533756301432,120.75965118408203,0.998569585754427,108.11602783203125,0.9973075085281274,127.95586395263672,1.0,67698.0,-0.004735509947475569,-8.316789662262376e-05,-0.0003795867449076736,0.00097724098639858,-0.0002984337557038473,103.0,0.963355541229248,0.7648625759500526,0.38057254276344943,0.8769625369190114,0.3568243980407715,0.07188196279599979,0.3867617950308724,0.689662645456137,-0.0012249939820330024
39,1.2667356196697515,155.1463623046875,1.0026109743096685,120.73465728759766,0.9983629095623872,108.08647918701172,0.9970349394545522,127.98039245605469,1.0,67590.0,-0.004613517065910122,-7.944429721955788e-05,-0.0005129810324313529,0.0014827895686642255,-0.0004680285353875347,103.0,0.9632933735847473,0.7644178132859891,0.38132859890516346,0.8755635006995182,0.3566000759601593,0.07339758536711746,0.38659565024411896,0.6892824224434696,-0.0010669953848072757
40,1.3000707675557976,155.11245727539062,1.0023918679513089,120.72127532958984,0.998252253261765,108.10283660888672,0.997185827162723,127.72515869140625,1.0,67922.0,-0.004212525670833689,-0.00022039007511030485,-0.0007127559963972229,0.0017222144979104205,-0.0006658654729092355,103.0,0.9625979661941528,0.7638369502272214,0.3831306498630782,0.8798642416705529,0.35620519518852234,0.0680993833877403,0.386575778098407,0.6898361358716254,-0.0016441898218533361
41,1.3334059154418436,155.14454650878906,1.0025992399907466,120.7186050415039,0.9982301724720172,107.94831848144531,0.995760487259,128.21749877929688,1.0,66741.0,-0.006559180067051723,-0.00038708518870046136,-0.0008376654504685257,0.001649126848305541,-0.0007576296034161015,103.0,0.957465648651123,0.7670247673843664,0.38513057940396456,0.864565521529613,0.3565983474254608,0.0787216954246334,0.37149578220284385,0.6844750508122814,-0.002693171364784983
42,1.3667410633278898,155.53762817382812,1.0051394735180663,121.14773559570312,1.0017786815604384,108.43690490722656,1.0002674130198463,128.2484893798828,1.0,67768.0,-0.006772163366364242,-0.0004936443333420074,-0.0008252379644449183,0.0012723345216735643,-0.000709233428748366,103.0,0.9636715650558472,0.7707423365993783,0.38997757053476567,0.877130764551326,0.35478711128234863,0.06875396383686465,0.360538897414709,0.6861735038528809,0.005150996822236114
43,1.4000762112139358,155.510986328125,1.0049673044353948,121.09046173095703,1.0013050801643322,108.46366119384766,1.0005142242104037,128.3507080078125,1.0,67544.0,-0.00496117801830101,-0.0005361345190252333,-0.0007258398006781049,0.0006534383745478807,-0.0006014270503391285,103.0,0.9640678763389587,0.7709986576651269,0.3909155513443089,0.8742315010160365,0.35483884811401367,0.07178265877997955,0.35978029136562834,0.685687533486094,0.004943457858514487
44,1.433411359099982,155.5022430419922,1.0049108022106694,121.09960174560547,1.0013806595532406,108.43470001220703,1.0002470741450042,128.3164520263672,1.0,67572.0,-0.005760921051706475,-0.0005943390269649943,-0.0006757444959987476,-0.00010429206475713396,-0.0005823790855515419,103.0,0.9635854363441467,0.768306399100219,0.3846711655715385,0.8745939089579478,0.35509705543518066,0.07099312719224447,0.3598087965429468,0.6851604978639109,0.0032752089572694945
45,1.466746506986028,155.43548583984375,1.0044793934267702,121.03716278076172,1.000864347600965,108.4368896484375,1.0002672722663872,128.37283325195312,1.0,67329.0,-0.004528140671861386,-0.0007781130291684498,-0.0008168903007278878,-0.0008733754841103885,-0.00077956160432267,103.0,0.964327335357666,0.768475198898939,0.3847673365117557,0.87144872574779,0.35570618510246277,0.07475958115996428,0.3586121879130835,0.6845377782162267,0.003597079683733427
46,1.5000816548720741,155.3929443359375,1.0042044750977392,121.03136444091797,1.000816400743227,108.4515380859375,1.000402395587137,128.47299194335938,1.0,67700.0,-0.004423288128012209,-0.001144330298059596,-0.0012014231176141225,-0.0015256810322804499,-0.0012157876955930533,103.0,0.9636893272399902,0.7691580502215657,0.38580502215657314,0.8762506309781132,0.3556274473667145,0.06929757574973143,0.36016248153618907,0.6856988260415915,0.002567755366020108
47,1.53341680275812,155.39044189453125,1.0041883034313257,120.99797821044922,1.0005403277834082,108.40885162353516,1.0000086377852644,128.37734985351562,1.0,67544.0,-0.004272697976039241,-0.0016321929950953791,-0.001732537827946814,-0.0019532473697017345,-0.0017690357713820042,103.0,0.9641127586364746,0.7687926882229855,0.3853488096648111,0.8742315010160365,0.35490110516548157,0.07153673910511124,0.3594989932488452,0.685240647696667,0.004959379081773928
48,1.5667519506441663,155.42532348632812,1.0044137206838957,121.04876708984375,1.0009603044044122,108.31289672851562,0.9991235096576228,128.3104248046875,1.0,67593.0,-0.0070245911064628075,-0.0020588751542382224,-0.0021792752914150905,-0.0020875960505520957,-0.002204869226479264,103.0,0.9634937644004822,0.7688665986122823,0.3845072714630213,0.8748657149143811,0.35429492592811584,0.07142025083806837,0.35965262675129084,0.6851500460387442,0.005112536466087125
49,1.6000870985302125,155.49600219726562,1.0048704716523573,121.01520538330078,1.000682780421267,108.25948333740234,0.9986308021739925,128.21295166015625,1.0,67408.0,-0.006518385263713844,-0.002185645742088117,-0.0022665126732349847,-0.0019092480875610603,-0.002266958588662296,103.0,0.963204026222229,0.7688899438246697,0.38416805126987896,0.8724712338696108,0.355172336101532,0.07509610282031037,0.3585776169000712,0.6842791422492558,0.006262130259225122
50,1.6334222464162584,155.58319091796875,1.0054339161760601,120.93863677978516,1.00004962954724,108.17919158935547,0.997890157472132,128.1305694580078,1.0,67826.0,-0.0052003396575215355,-0.0018248444683202118,-0.0018009174419935465,-0.0014506871147217401,-0.0017909861169072372,103.0,0.9619224667549133,0.7705157314304248,0.3879338306843983,0.8778814667167135,0.3548409044742584,0.06976352881790296,0.35984725621443103,0.6853910496068352,0.008181548130180242
51,1.6667573943023046,155.6004638671875,1.0055455401174027,120.80329132080078,0.9989304489468777,108.10272216796875,0.9971847715117796,128.1404571533203,1.0,67712.0,-0.0027511260682797634,-0.0009346100714804074,-0.0007716133940383005,-0.0007875714064249894,-0.0007846565753708676,103.0,0.9654950499534607,0.7702672101449276,0.3861353969754253,0.8764059486675037,0.35485196113586426,0.07028125444920465,0.247843809073724,0.6637509656202227,0.008534707005942634
52,1.7000925421883506,155.64927673339844,1.0058609862201897,120.77930450439453,0.9987321003669712,107.97693634033203,0.9960244703715693,128.1600799560547,1.0,67602.0,-0.003908490971671091,0.00034565679632313727,0.0006261129953487821,-2.5066990383773242e-05,0.0005599359002682014,103.0,0.96540766954422,0.7698638107353827,0.38472234549273693,0.8749822031814241,0.3547956049442291,0.0710966723185048,0.24892754652229224,0.6637347212666292,0.007645688975429433
53,1.7334276900743968,155.56326293945312,1.0053051344910837,120.74336242675781,0.9984348929369652,108.1061782836914,0.9972166521702691,128.23512268066406,1.0,67467.0,-0.0013391800764723516,0.0017368862411535305,0.002058821249267996,0.0007231760282962862,0.0019338756388223891,103.0,0.9659140110015869,0.7691414568109841,0.3831947470615264,0.8732348791757808,0.35469743609428406,0.07328406311075446,0.24829916848236916,0.6632411777113467,0.006732365207131923
54,1.7667628379604428,155.52040100097656,1.00502814539989,120.69498443603516,0.9980348521147048,108.1948013305664,0.998034148260806,128.27191162109375,1.0,67787.0,0.0011800250541089963,0.002921374648689874,0.0031841981279383536,0.0013533832447883982,0.0030236609119754475,103.0,0.9652422666549683,0.7704623797089903,0.3882307817133079,0.8773766842261943,0.356249064207077,0.0697505856771204,0.2482776933630342,0.6638984875698077,0.005393450225553147
55,1.800097985846489,155.57093811035156,1.0053547341752667,120.61653137207031,0.997386118511913,108.18059539794922,0.9979031067903705,128.2783203125,1.0,67457.0,0.003418665269624449,0.0036586285022580695,0.0037808871857782787,0.0017898964579290827,0.0036233015591186947,103.0,0.9647812843322754,0.7688552213508854,0.3847488029411329,0.8731054477679554,0.35743260383605957,0.07496667141248495,0.24836562550958388,0.6626448230291652,0.002432173525430511
56,1.833433133732535,155.6737518310547,1.0060191530063325,120.63571166992188,0.9975447216702732,108.11882781982422,0.997333336787875,128.00657653808594,1.0,67457.0,0.0026010197933721557,0.0038631904416733687,0.0038184686454698926,0.0019945448056799585,0.003693472438890159,103.0,0.964043378829956,0.7689194598040233,0.3868686718946885,0.8731054477679554,0.35936781764030457,0.07645513260247731,0.24674978134218836,0.6619118717203349,0.00026899615583496697
57,1.866768281618581,155.86431884765625,1.007250664846816,120.82581329345703,0.9991166846364081,108.12484741210938,0.9973888640274957,127.62655639648438,1.0,66921.0,-0.000992831306025399,0.003609565225043144,0.003438523077356837,0.001968998281200891,0.003348637148097814,103.0,0.9648771286010742,0.7670785951594666,0.3833774151611602,0.866123082896525,0.36124053597450256,0.08591212062382708,0.24337651858161116,0.6595643655986718,-0.0007771977125973269
58,1.9001034295046273,155.88075256347656,1.0073568653634466,120.8124008178711,0.9990057759839032,108.17845916748047,0.9978834013060944,127.35098266601562,1.0,67462.0,0.0004191509881280031,0.0030687515860605918,0.0028638233184823674,0.001749689334891952,0.0027851278285099023,103.0,0.9635353684425354,0.7664018262132757,0.38461652485843884,0.873124959554779,0.36256828904151917,0.07660648417782955,0.24317393495597522,0.6605419568760313,-0.0029669314582332126
59,1.9334385773906733,155.76809692382812,1.0066288445516691,120.77590942382812,0.9987040262200061,108.15526580810547,0.9976694560482404,127.20374298095703,1.0,67325.0,0.00018251681709441359,0.002418587345353129,0.0022881647012693413,0.001394197109171167,0.0021877203996167145,103.0,0.9635446667671204,0.7652927342492882,0.38459710360193095,0.8713518410664596,0.3643645942211151,0.07831489031256067,0.24516895655402896,0.6604481224024338,-0.010576986208148637
60,1.9667737252767195,155.7237548828125,1.006342290511438,120.72384643554688,0.9982735139078937,108.13279724121094,0.9974621965796944,126.85855102539062,1.0,67844.0,0.0008762316463975517,0.0017792502534010148,0.0018042000069266578,0.0009680039734562952,0.0016645888880277915,103.0,0.9627981781959534,0.7629070612974864,0.3849124462001061,0.8780689833689251,0.36583900451660156,0.07123535883000065,0.24460527091562997,0.6608043535788115,-0.014512206900642081
61,2.0001088731627656,156.50453186035156,1.0113879490401998,121.29750061035156,1.0030170984254392,108.65321350097656,1.0022627340562535,127.49127197265625,1.0,66957.0,0.00017152598671771324,0.0012003726297611904,0.0013994058550378702,0.0005284921368740738,0.0012312511806843993,103.0,0.9604170918464661,0.7691304369470954,0.390205654375196,0.8725403320388856,0.36844247579574585,0.0784748103938075,0.27069611840434904,0.6655136143688961,-0.010621806653504838
62,2.0334440210488114,156.49478149414062,1.01132493870582,121.35321807861328,1.003477829875521,108.6802978515625,1.0025125714461818,127.24320983886719,1.0,67018.0,-0.0009199835969292691,0.0006888423193553735,0.0010089587586562235,0.00011543346759198463,0.0008451974935242022,103.0,0.9621263146400452,0.7682015776855969,0.39137246709839146,0.873335244598504,0.36948713660240173,0.07430477729416977,0.27252379957623324,0.6667878897453102,-0.015708175389153322
63,2.0667791689348576,156.7078399658203,1.0127017983285818,121.80217742919922,1.0071903045998125,109.21898651123047,1.0074816611900306,127.18779754638672,1.0,67281.0,-0.002119759271182048,0.00024424156751644375,0.0005840436315462852,-0.00025376642596589997,0.0004587886354166087,103.0,0.9649267196655273,0.7687707772872976,0.39177479526166376,0.8774943266296268,0.3695506751537323,0.07041500378224691,0.26462151275991735,0.6666437373206653,-0.01195572331174794
64,2.1001143168209038,156.63058471679688,1.0122025474319232,121.7843246459961,1.0070426787483555,109.25843048095703,1.0078455088818414,126.94638061523438,1.0,67712.0,-0.0015184630576553781,-0.00012662534856180347,0.0001313458724940902,-0.0005810138424537173,5.912842581969577e-05,103.0,0.9633162617683411,0.7693761814744802,0.3972707939508507,0.8831155280799228,0.3693983554840088,0.06682839032788168,0.26510810491493386,0.6670333802675071,-0.014868798308622104
65,2.13344946470695,157.113525390625,1.0153234818343018,122.3455581665039,1.011683556049588,109.85395812988281,1.0133389052608919,127.19123840332031,1.0,67654.0,-0.0027762410204187626,-0.00042237540956112233,-0.00029699764250209993,-0.0008800303094170144,-0.00032871442832761624,103.0,0.9568578004837036,0.7697746376168938,0.39610370414166196,0.8806591861706282,0.3705030381679535,0.07020124443518784,0.2567771306944157,0.6632926046735578,-0.011552181206067054
66,2.1667846125929957,157.09027099609375,1.0151732036659218,122.33626556396484,1.0116067149012655,109.72994232177734,1.0121949315219387,126.95765686035156,1.0,68113.0,-0.004824916665482709,-0.0006703186338535865,-0.0006500432087824202,-0.0011647103311694601,-0.0006702561257456174,103.0,0.9542155861854553,0.769544727144598,0.4007164564767372,0.886634037124782,0.36901429295539856,0.06457785530186665,0.25633873122605083,0.6633981313721949,-0.014811676113127864
67,2.200119760479042,157.59840393066406,1.0184569394173786,122.7873306274414,1.0153366019054726,110.3310546875,1.017739843667025,127.04971313476562,1.0,68402.0,-0.0028460491352396977,-0.0009342727928087503,-0.0009251155425509109,-0.0014381183765498665,-0.0009583637588122557,103.0,0.9395824670791626,0.7728916308490006,0.4037893628841262,0.8864381520119226,0.3689083158969879,0.06132313872869825,0.25138153855150436,0.6599385484533,-0.010428007602163416
68,2.233454908365088,157.61094665527344,1.0185379949648907,122.94627380371094,1.0166509135992354,110.48978424072266,1.0192040315254636,126.73839569091797,1.0,68685.0,-0.0042765697471151,-0.0012900705320447235,-0.0011797109769090951,-0.0016866674776283492,-0.0012307741600430242,103.0,0.936016321182251,0.7710756836766883,0.40656620805124843,0.8901056178319187,0.3700430393218994,0.06200997861724875,0.2502293077091068,0.658343481993962,-0.016242256966281336
69,2.2667900562511343,158.2653350830078,1.022766885732044,123.40866088867188,1.0204744231519733,111.01203918457031,1.024021529793846,126.97140502929688,1.0,68245.0,-0.002889228125390164,-0.001775377367419703,-0.0014958831769516052,-0.001876740187070709,-0.0015476020715535753,103.0,0.917801558971405,0.7755391115344225,0.4106234889002857,0.8815588911566383,0.36963731050491333,0.06947063838582168,0.2446919188218917,0.6523812936723826,-0.009853968495142008
70,2.3001252041371805,158.25120544433594,1.0226755749814405,123.54454040527344,1.0215980199102854,111.13462829589844,1.0251523430843719,126.6006851196289,1.0,69149.0,-0.004518654039449843,-0.0023432134970312406,-0.0019160700764467677,-0.001962410402474132,-0.0019436476297489036,103.0,0.9150275588035583,0.7740145675762965,0.4148722324256316,0.8932363655152815,0.3700447678565979,0.059394941483452604,0.2442696206741963,0.6529105367136357,-0.013856804804887591
71,2.333460352023226,159.28375244140625,1.0293482609237645,124.2723159790039,1.0276160445241063,111.66641235351562,1.0300577418879715,127.63072967529297,1.0,68496.0,-0.0073200205630788995,-0.00285298071757247,-0.0023893769376801726,-0.001894725291600218,-0.002377395343978246,103.0,0.9578724503517151,0.7791695865451996,0.4193675543097407,0.8861748648019251,0.36802104115486145,0.06301912179470592,0.34772833450128476,0.6847646373100728,-0.0035081862973621192
72,2.3667954999092724,158.9901885986328,1.0274511469595509,124.15850067138672,1.0266748981770821,111.53878784179688,1.0288804799559377,127.80525970458984,1.0,68487.0,-0.008604927334363466,-0.0031128597521106853,-0.002764135263500599,-0.001636480850429662,-0.002716764861049688,103.0,0.9613996148109436,0.7795299351215071,0.4233066129338415,0.8860584262685332,0.36527520418167114,0.06005640800062101,0.34625549374333814,0.6858979641956057,-0.0077301390836721565
73,2.4001306477953186,159.26010131835938,1.0291954189546118,124.41838073730469,1.0288238637233138,112.04149627685547,1.0335176730431945,128.12478637695312,1.0,68405.0,-0.004934904775002996,-0.00295638291243074,-0.0028384613470225657,-0.001174387586979304,-0.00277426674829574,103.0,0.958368718624115,0.781122237653193,0.42531978656530955,0.8810762770808109,0.36403438448905945,0.06706767304670393,0.3342007163219063,0.681925942763576,-0.0023529367005848713
74,2.433465795681365,159.03640747070312,1.0277498297495922,124.42478942871094,1.0288768576187086,111.98011016845703,1.032951421877177,127.87911224365234,1.0,68813.0,-0.007793284592550659,-0.0023162838168977033,-0.002449711007625031,-0.0005298534934044683,-0.0023891605796220895,103.0,0.9557201266288757,0.7799107726737681,0.43004955458997574,0.886331435637188,0.36161860823631287,0.06288157860841341,0.33298940607152716,0.6814490148289318,-0.00671967052050567
75,2.4668009435674105,159.4134979248047,1.0301867223842203,124.60657501220703,1.0303800546967716,112.2929458618164,1.0358371492959424,128.25595092773438,1.0,68407.0,-0.00451382194270597,-0.0012623015236691156,-0.001562569720631691,0.00024225665998892402,-0.0015137602558253688,103.0,0.9446150660514832,0.7853143684125894,0.4342538044352186,0.8805689644075433,0.3604315519332886,0.06604878676707215,0.3226570380224246,0.6771802419171421,-0.0007330797209184978
76,2.5001360914534567,159.34317016601562,1.0297322393933652,124.60887145996094,1.0303990441759547,112.2699966430664,1.0356254560934341,128.0753173828125,1.0,68723.0,-0.005477173540746921,1.0545155256054198e-05,-0.0003136775311925968,0.0010554070960829699,-0.00027131959720032707,103.0,0.9415249228477478,0.7862384742614069,0.44087132401088425,0.8846366737465405,0.35906368494033813,0.06383471712685847,0.3212752644675,0.676670423717421,-0.0018371456954414458
77,2.533471239339503,159.6501007080078,1.0317157337220806,124.70787811279297,1.0312177367718345,112.48474884033203,1.0376064202770117,128.42466735839844,1.0,67812.0,-0.0021796137339245847,0.001235513533869688,0.0010119699695344962,0.0018085407776421876,0.0010616540471284181,103.0,0.9310116171836853,0.7893784777522169,0.44328437444700053,0.8757958904286508,0.3593719005584717,0.07049038473956787,0.3145903379932755,0.672268205886689,0.000670947724947692
78,2.566806387225549,159.4855194091797,1.030652150832221,124.75105285644531,1.0315747515980718,112.56012725830078,1.0383017423650374,128.22640991210938,1.0,68046.0,-0.003236062597442413,0.00214889844896487,0.0020690684397047725,0.0023998106224254185,0.0021370969268818306,103.0,0.9285709261894226,0.7886037876338555,0.44705052464509304,0.8788180139224322,0.35741981863975525,0.06761032688010953,0.3124357052582077,0.6715329778249508,0.00010760942460208249
79,2.6001415351115953,159.26388549804688,1.029219873669676,124.73876953125,1.0314731799652317,112.4333724975586,1.0371325033801733,128.2024383544922,1.0,67970.0,-0.0067037815576896365,0.0025629221894592287,0.0025729627330963543,0.0027465824615681526,0.0026619419415581354,103.0,0.9279078841209412,0.7875974694718257,0.44705016919229074,0.8778364695398365,0.35642173886299133,0.06996086737527284,0.3124760923937031,0.6707979446232974,-0.001894138044984844
80,2.633476682997641,159.6058807373047,1.031429968543626,124.76561737060547,1.0316951865341537,112.67896270751953,1.039397930304621,128.41551208496094,1.0,68114.0,-0.0006822047129380615,0.0024184291267166113,0.0024062618284966465,0.0028010950301844296,0.002511966912686894,103.0,0.9173623323440552,0.7910904268334459,0.45018645212437974,0.8765603685687077,0.3564318120479584,0.06902941857771601,0.30857092521361246,0.6682281465229909,0.0034912371611059353
81,2.6668118308836872,159.9532928466797,1.0336750691588978,124.91290283203125,1.0329130998086744,112.68389129638672,1.0394433936719152,128.68463134765625,1.0,68234.0,-0.0019979167435247303,0.0018042738549093388,0.0016666100793036275,0.002556790961919687,0.001781675989174706,103.0,0.9611488580703735,0.7892253128938652,0.4508016531348008,0.8781046508635112,0.3580440282821655,0.07608164105731861,0.3618137585367998,0.6883219662345554,0.0034827570218493396
82,2.7001469787697334,159.7454071044922,1.0323316375539056,124.87620544433594,1.0326096466695682,112.33904266357422,1.0362623654959273,128.3400115966797,1.0,68462.0,-0.008466547484713927,0.0009337023414553136,0.0006322642226645763,0.0020516926187053868,0.0007496421160373598,103.0,0.964583694934845,0.7919916644756703,0.4567643364202039,0.8810387872236378,0.35545212030410767,0.0692353228836898,0.361981829335982,0.6908629708346513,0.003340230996460058
83,2.7334821266557796,159.47938537597656,1.0306125105279633,124.76893615722656,1.0317226298014117,112.55117797851562,1.0382191904612668,128.73040771484375,1.0,68366.0,-0.003873193466443159,7.672841802818054e-05,-0.0003448265978385463,0.001361196405009908,-0.00023116366234705404,103.0,0.9672881960868835,0.7913387746345649,0.45111605183863324,0.8745027309822582,0.35466912388801575,0.07696637118334036,0.35226574613111783,0.6882283337855231,0.0049032530514368355
84,2.7668172745418254,159.4216766357422,1.0302395761232306,124.64352416992188,1.0306855897389113,112.17079162597656,1.0347103474790014,128.26754760742188,1.0,68594.0,-0.007474283701477208,-0.0005339553900790303,-0.0009763336185987962,0.0005811044392158175,-0.0008735041894642337,103.0,0.9673745036125183,0.7933687105772128,0.4577076712248885,0.8774191897872776,0.3535429537296295,0.07422899318213796,0.35049712802869054,0.6887401547151683,0.004891423102403026
85,2.8001524224278715,159.1954345703125,1.0287775194286313,124.548583984375,1.029900523031419,111.98944091796875,1.0330374926174255,127.9346923828125,1.0,68289.0,-0.009698285588377181,-0.0007874561353360784,-0.0011466829031402447,-0.00018527182981048973,-0.0010591649670147706,103.0,0.9663223624229431,0.7931780130523706,0.4610552211922857,0.8735177865612648,0.3524329364299774,0.08171201248449032,0.35168182284116034,0.6874786357869235,0.005930805073384185
86,2.8334875703139177,159.23223876953125,1.0290153612541775,124.60633087158203,1.030378035881709,112.19778442382812,1.034959340348175,128.10577392578125,1.0,69218.0,-0.00738132029408381,-0.0007301117356262776,-0.0009451265434270062,-0.0008476952166065091,-0.0008706648387528968,103.0,0.9612395167350769,0.7943935585156078,0.46040047386517957,0.8815558215950483,0.3516836166381836,0.07030235105326167,0.34177526077031983,0.6862952668724329,0.006570229650622778
87,2.866822718199964,158.9424591064453,1.0271427020050283,124.43887329101562,1.0289933180126358,112.04457092285156,1.0335460348652061,128.06967163085938,1.0,69137.0,-0.0076399606754911364,-0.0005304657215083908,-0.0006057444485714918,-0.0013424367695321208,-0.0005317848777022297,103.0,0.9604328274726868,0.7935885753407486,0.4626466291566021,0.8805242110089406,0.351479172706604,0.07218726916121145,0.3407148126184243,0.6854189213942123,0.0014412780277048998
88,2.90015786608601,158.72531127929688,1.0257394155127613,124.27040100097656,1.0276002094434586,111.88198852539062,1.0320463067583412,127.87828826904297,1.0,69262.0,-0.007501096088111919,-0.0003861310575602462,-0.0003837613677682331,-0.0016395123929972156,-0.0002914263985372086,103.0,0.9581502079963684,0.7925076761668254,0.4663884958563137,0.8821162026541685,0.35189288854599,0.07195802236429863,0.33927694839883343,0.6843811933339361,-0.0034344313948482287
89,2.933493013972056,159.01792907714844,1.0276304157982088,124.52127838134766,1.0296747311842547,112.30412292480469,1.0359402512047438,128.61962890625,1.0,69040.0,-0.004811187384093474,-0.0004182559895408091,-0.0004282343594874754,-0.0017443619623579783,-0.0003043461659187653,103.0,0.9443756937980652,0.7967072228659714,0.46632387022016225,0.8738798035542504,0.35015276074409485,0.07771758391980153,0.3294611819235226,0.6788927909802469,0.0012347947615024314
90,2.966828161858102,158.78472900390625,1.026123393982362,124.6385498046875,1.0306444563820096,112.44554138183594,1.037244754263817,128.32257080078125,1.0,70724.0,-0.0072205555004623,-0.0006110291556954921,-0.0007137434610696911,-0.0016926580717319425,-0.000563700558820334,103.0,0.9392013549804688,0.7914427916973023,0.4661642441038403,0.8951951799908865,0.34951746463775635,0.05828818793985115,0.3293365759855212,0.6796301022113057,-0.005296844704290893
91,3.0001633097441482,160.01536560058594,1.0340762053721324,125.51249694824219,1.0378711834266277,113.04927825927734,1.042813876003871,129.4900360107422,1.0,69628.0,-0.011254640823452622,-0.0008312952757633272,-0.0010639536294391148,-0.0015386000061998679,-0.000914901425082092,103.0,0.9621133804321289,0.8004346910246835,0.4743206755902798,0.8796189850550172,0.34589287638664246,0.061017976931920105,0.29108979146320446,0.6790703652965026,0.007532416012708449
92,3.0334984576301944,160.0148162841797,1.034072655494139,125.52083587646484,1.0379401385786118,113.17733001708984,1.04399507903276,129.1864776611328,1.0,69798.0,-0.009268391863734404,-0.0009161742469302941,-0.001252345354104765,-0.0013417740101716567,-0.0011416619524155832,103.0,0.9660954475402832,0.801498610275366,0.479025186968108,0.8811988688011312,0.34445691108703613,0.05972881527118473,0.27979311728129747,0.678225596953014,0.007352267731194018
93,3.06683360551624,159.91461181640625,1.0334250985835414,125.42578887939453,1.0371541886395297,113.1977310180664,1.0441832664075958,129.19300842285156,1.0,69152.0,-0.007091813446264306,-0.0007744506157351243,-0.0011256130311466971,-0.0011544945232604385,-0.0010798352272342248,103.0,0.9624948501586914,0.8021990205151935,0.48112852845904674,0.8730321049375702,0.34512877464294434,0.07178477193248242,0.2697535863026377,0.6735286703940419,0.007851871710123337
94,3.1001687534022864,159.72665405273438,1.0322104486635257,125.28416442871094,1.0359830866392743,112.98055267333984,1.0421799224240191,128.791015625,1.0,69634.0,-0.008400068880404649,-0.0004405336108357685,-0.0006851569915289336,-0.0010106269979630652,-0.0007028515908682474,103.0,0.9602111577987671,0.8032139472096964,0.49090961312002757,0.8791172720271686,0.34474340081214905,0.06575010415483089,0.26900651980354423,0.673976866187567,0.003665413915671852
95,3.1335039012883326,159.85423278808594,1.0330349078274526,125.35264587402344,1.0365493642643506,113.08043670654297,1.0431012945673828,128.99777221679688,1.0,69539.0,-0.007574869895438513,-5.217902178116608e-05,-8.642456821310107e-05,-0.0009194974662048533,-0.00013802653994499415,103.0,0.9496827125549316,0.8067559211377788,0.49326277340772806,0.876468364003025,0.344882607460022,0.0664608016133098,0.2634492874502078,0.6708279915982007,0.005366969431136116
96,3.1668390491743788,159.7610626220703,1.0324328090767125,125.09652709960938,1.0344315010876781,112.91781616210938,1.04160121457687,128.872314453125,1.0,69541.0,-0.0041774268621630195,0.00022987278658327795,0.0004403538276488582,-0.0008655123274325146,0.0003947660949979772,103.0,0.9486845135688782,0.80667999213893,0.4962971484448023,0.8764935719687421,0.34438225626945496,0.06804890345349131,0.26260767029522153,0.6701408363264912,0.004926952062821465
97,3.200174197060425,159.66726684570312,1.031826667409369,125.02110290527344,1.0338078134092574,112.60761260986328,1.0387397671298018,128.61656188964844,1.0,69342.0,-0.008175059035037763,0.0003110845690132788,0.0007054222108487485,-0.0008138168584895557,0.000690080918615164,103.0,0.9472013711929321,0.8074327247555594,0.49678405583917395,0.8739853793798841,0.34438255429267883,0.07253592135114696,0.2623374001326757,0.6691486203596966,0.003942128054335976
98,3.2335093449464707,159.5105743408203,1.0308140647118011,124.76028442382812,1.0316510880426286,112.3227767944336,1.0361123223085114,128.43411254882812,1.0,69692.0,-0.0072216236782187415,0.00021200615878642817,0.0006530334549090144,-0.000716983112285656,0.00066227604280539,103.0,0.948697030544281,0.8072901719948726,0.4988664409114389,0.8783967733803882,0.34441471099853516,0.06604487017897656,0.26344487172128794,0.6707540871506661,0.005086895257984147
99,3.266844492832517,159.3689422607422,1.0298987878358807,124.64326477050781,1.0306834447479072,112.12751770019531,1.0343111706689525,128.4256591796875,1.0,69511.0,-0.008473423265308283,5.509866601174361e-05,0.0003895045694513333,-0.0005299433344329575,0.0003910505109744723,103.0,0.9485945701599121,0.8073877995329276,0.4980506682395592,0.8761154524829846,0.34408947825431824,0.06830098311066297,0.26414524319891813,0.6705270937886412,0.005581766454977219
100,3.300179640718563,159.28489685058594,1.0293556565029172,124.47721862792969,1.029310398153415,112.00746154785156,1.0332037224526396,128.2963104248047,1.0,69660.0,-0.006692858000335311,3.167590011920959e-06,0.00013518278200641624,-0.0002185438790987765,9.300067767196276e-05,103.0,0.9475160837173462,0.8077280122499761,0.49649727246626474,0.8779934459289135,0.34446853399276733,0.06712881270481472,0.2630778064886592,0.6702995746442934,0.007776246194171209
101,3.3335147886046093,159.5470733642578,1.0310499343829065,124.46173095703125,1.0291823295728775,111.94244384765625,1.0326039719633529,128.53187561035156,1.0,69225.0,-0.005469758320331974,0.00018427126114769392,0.000124256560381532,0.00022853519847421393,2.136878795120479e-05,103.0,0.9635210037231445,0.806803900325027,0.49678584326471653,0.8725107133854298,0.34544453024864197,0.0734182001512478,0.37727699530516434,0.6959495180326247,0.009320439359490226
102,3.366849936490655,159.4859619140625,1.03065501045616,124.27254486083984,1.0276179371632277,111.5914077758789,1.0293658682596942,128.31417846679688,1.0,69739.0,-0.006879012726018041,0.0006362987148308105,0.0004970386873987554,0.0007945496713441111,0.0003454296954756179,103.0,0.9627826809883118,0.8074391660333529,0.4990464446005822,0.8789891605747416,0.34533748030662537,0.06639778169901689,0.37648948221224854,0.6968577548243555,0.009773094674613205
103,3.400185084376701,159.11419677734375,1.0282525319165219,124.05210876464844,1.025795136425557,111.51847076416016,1.0286930667251268,128.57334899902344,1.0,69724.0,-0.004933506553755629,0.0012888523070030621,0.0012300511898603404,0.0014341237446223337,0.0010613504526237791,103.0,0.963114857673645,0.8074694509781425,0.49837932419253056,0.8788001008318629,0.34471315145492554,0.06508696748172423,0.37787562388847457,0.6974338145946588,0.006258622591283205
104,3.4335202322627474,159.1966094970703,1.0287851122232279,124.1240005493164,1.02638961437354,111.56056213378906,1.0290813351420942,128.28076171875,1.0,70205.0,-0.0055258911814987655,0.0019840415391585743,0.0021325926900518147,0.002075869229783941,0.0019752169073565654,103.0,0.9647672176361084,0.8092870878142583,0.5010326899793462,0.8831928544471003,0.34387534856796265,0.06288841363693547,0.3668114806637704,0.6963493719227232,0.008200630412663818
105,3.4668553801487936,158.81114196777344,1.026294083949203,123.87501525878906,1.0243307384494795,111.52425384521484,1.0287464122861312,128.52345275878906,1.0,70129.0,-0.0022837284422620174,0.002526673304324583,0.0029120397275686646,0.002633877182824902,0.0027740144858656775,103.0,0.9643097519874573,0.8066990831182536,0.5019036347302828,0.8822367593407976,0.34343406558036804,0.06519059001132217,0.3673801137903007,0.6954627829767636,0.00427198978617954
106,3.5001905280348398,159.17977905273438,1.0286763479058243,124.27726745605469,1.0276569886170959,111.8849868774414,1.0320739648130572,128.21121215820312,1.0,71448.0,-0.004156692172761517,0.00274697501244068,0.0032833016774202924,0.0030176322793780282,0.003148594087107839,103.0,0.9553003311157227,0.8092972044937111,0.5038629492777964,0.8917067082683308,0.34350284934043884,0.053778471138845554,0.34912103907737096,0.6919041761109318,0.0051875690665182245
107,3.5335256759208855,159.23046875,1.0290039227584216,124.4715805053711,1.0292637761430616,112.20252990722656,1.0350031146739596,128.576171875,1.0,71210.0,-0.00352149577862218,0.002555518181486435,0.0030798629337027263,0.0031493375515143046,0.0029248935361962615,103.0,0.9453478455543518,0.8113139540326734,0.509254318213734,0.8899136455091916,0.3425980508327484,0.05492445544183257,0.3396011796096054,0.6877320752463506,0.004495624595655341
108,3.5668608238069317,159.45162963867188,1.0304331430815834,124.77590942382812,1.031780292206639,112.49190521240234,1.0376724336493364,128.64227294921875,1.0,71388.0,-0.00507560734907489,0.001972529359525138,0.002321509636735859,0.0029750265618801223,0.0021351992508629246,103.0,0.9306253790855408,0.8126762667862012,0.5145262509105172,0.89170351495166,0.34359583258628845,0.052374528466861525,0.3294531293774864,0.6827022994494248,0.0016780664576081933
109,3.600195971692978,159.78326416015625,1.032576283312272,125.05747985839844,1.0341086168535938,112.96513366699219,1.042037691053584,128.6253204345703,1.0,70784.0,-0.002043573334148535,0.0011214936803881335,0.001208912814774667,0.0024784445169797236,0.001006513677772518,103.0,0.9118165969848633,0.8151606766124172,0.5230278028933092,0.8875402806164031,0.34291908144950867,0.05909495567564856,0.31973327305605787,0.6754777462718071,0.003466247203700871
110,3.633531119579024,160.00648498535156,1.0340188156779087,125.37077331542969,1.0366992612827532,113.2105712890625,1.044301710443441,129.0340576171875,1.0,71592.0,-0.004579961731660531,0.00018648668984789084,4.337107581847862e-05,0.001684336608368752,-0.00014079916594876427,103.0,0.8936640024185181,0.815277312176407,0.5251285059783216,0.8955716787590693,0.34086328744888306,0.05060045033775332,0.31302380154207177,0.6709801512942848,0.0003883449729997022
111,3.66686626746507,161.21905517578125,1.0418548755247905,126.25125122070312,1.0439799916302976,113.9802474975586,1.051401526051365,129.95303344726562,1.0,71168.0,-0.00606325074833014,-0.0006564243702696624,-0.0008982193781506235,0.00066103679022117,-0.001030209069842699,103.0,0.9633169770240784,0.8188043315347722,0.527048673561151,0.8870497320204412,0.3375874161720276,0.05616352985167643,0.3068654451438849,0.6869770348154827,0.011483822134064738
112,3.700201415351116,161.0066375732422,1.040482157426354,126.23600769042969,1.0438539418648227,113.93083190917969,1.0509456959740227,130.06741333007812,1.0,71616.0,-0.008051926419138877,-0.0013097797107302527,-0.0014800717392707693,-0.0004888785914347824,-0.0015488969230574284,103.0,0.9666034579277039,0.8228561587727138,0.5366538203753352,0.8934800509020137,0.33460733294487,0.051139057314669265,0.2958975647899911,0.6872193600241199,0.009905744418580581
113,3.733536563237162,161.15005493164062,1.0414089714057524,126.28224182128906,1.044236254967314,114.06636047363281,1.0521958681978776,130.03643798828125,1.0,71562.0,-0.0058998793095227375,-0.0017931473808180947,-0.001760499159957943,-0.0016395555021053868,-0.0017845448853776372,103.0,0.9557976126670837,0.826532703576386,0.5458483552723512,0.8915938851027247,0.333374947309494,0.05706240733588328,0.28696794388083063,0.6825195474844729,0.010168312797880615
114,3.7668717111232084,161.28564453125,1.0422851996237472,126.30731964111328,1.0444436251270317,114.03840637207031,1.0519380078607798,130.01275634765625,1.0,71377.0,-0.006053421387933411,-0.0022216309757853584,-0.001949973919985057,-0.0026608418092631506,-0.0019655910349805476,103.0,0.9437036514282227,0.8288337513017732,0.5521806744469507,0.8901762218924211,0.3322979211807251,0.05496177493982515,0.28007621502724966,0.6789140221324883,0.011428376056815393
115,3.8002068590092546,160.91455078125,1.0398870598238785,126.20761108398438,1.043619128437847,113.95130920410156,1.0511345871161542,129.72756958007812,1.0,71296.0,-0.007586274293459233,-0.002725018357109331,-0.002286873475207496,-0.003436020991466291,-0.0023246811662534827,103.0,0.9381227493286133,0.8267410981448234,0.5551503590664273,0.8891660327001983,0.3332395553588867,0.061895913098786524,0.27979129263913827,0.6759338193931399,0.006151309926521098
116,3.8335420068953003,161.2768096923828,1.0422281057526896,126.19477844238281,1.043513014471116,113.95561218261719,1.0511742795916246,129.8533935546875,1.0,70382.0,-0.004507788522322892,-0.0033442601846641125,-0.0028873041922786503,-0.003878809524329987,-0.0029520294777011903,103.0,0.9228449463844299,0.8344368351756605,0.5654002443806655,0.8756920856506538,0.3321171700954437,0.07084468664850137,0.27117728964792137,0.6704989116970637,0.013101580465517676
117,3.8668771547813465,161.08877563476562,1.0410129627940636,126.12310791015625,1.0429203660742836,113.78508758544922,1.0496012893092905,129.9202117919922,1.0,70366.0,-0.006890007500548773,-0.003962492755690933,-0.0036455406471660227,-0.003947395851506014,-0.003713664067449384,103.0,0.9213156700134277,0.834801845588305,0.566054628655885,0.87549301382305,0.3318794071674347,0.07398006793326117,0.27103999090469827,0.6696604739326358,0.015482665828712914
118,3.9002123026673927,160.71456909179688,1.0385947070188999,125.77031707763672,1.0400031152207683,113.3778305053711,1.0458445794855245,129.90541076660156,1.0,70334.0,-0.007169623437241451,-0.004317606542018487,-0.0042441161495018346,-0.003647300742813556,-0.00427773784868559,103.0,0.9217990636825562,0.8343901953535986,0.5659282850399522,0.8750948701678425,0.33113420009613037,0.07207644358179986,0.2707225523928683,0.6699400844968444,0.013194927033833743
119,3.933547450553439,160.51634216308594,1.0373136941019552,125.54264068603516,1.0381204439988956,113.11156463623047,1.0433884316239763,129.92747497558594,1.0,70358.0,-0.007089621145182162,-0.004104514680588407,-0.0042821286165754605,-0.003030999534202012,-0.004253209594807767,103.0,0.923348605632782,0.834304556695756,0.5643281503169505,0.8753934779092482,0.3301461637020111,0.06998618939195998,0.27070127064441857,0.6706405265735169,0.017205607203400676
120,3.9668825984394847,160.14883422851562,1.0349387271167645,125.23269653320312,1.035557495188877,112.8857650756836,1.0413055619359999,130.3914031982422,1.0,70753.0,-0.005344296736054049,-0.00312651699318597,-0.0034698920760412,-0.002185876237237458,-0.0033765169896737605,103.0,0.9270525574684143,0.8341177523685687,0.5599338543948666,0.8803080636532169,0.3292873799800873,0.06151319472957337,0.272285274122652,0.673201633508616,0.01986124526409546
121,4.000217746325531,159.99209594726562,1.0339258285960304,124.91092681884766,1.0328967600242611,112.5511245727539,1.0382186978241599,130.8641357421875,1.0,71351.0,-0.0036136262425019994,-0.0014232863457228563,-0.0017984852897982972,-0.0012190896620294823,-0.001665936312348097,103.0,0.9641162157058716,0.826365432860086,0.546957996384073,0.8877483732099088,0.3296035826206207,0.05694698468391127,0.30682120783170524,0.6885548645154004,0.027700164584568622
122,4.033552894211577,159.58787536621094,1.0313136114316257,124.43374633789062,1.02895092289632,112.20608520507812,1.0350359102299331,130.400634765625,1.0,72715.0,0.0002963767432226372,0.0006929235346717583,0.00040350321667257657,-0.00023837922434484418,0.0005389529591674231,103.0,0.9580807685852051,0.8164065186000138,0.530674551330537,0.9031236415574737,0.3355461657047272,0.04922064211637583,0.2987004056934608,0.684666274266376,0.027172442311478875
123,4.066888042097623,159.02804565429688,1.0276957927179173,123.78036499023438,1.0235480690848744,111.4526138305664,1.0280855747955886,129.65809631347656,1.0,73008.0,0.0007600069328130288,0.002722003443509786,0.002565352352895452,0.000663416146991321,0.0026770844256941598,103.0,0.9444097876548767,0.8155818540433925,0.5259971509971509,0.9095869930854046,0.3381381630897522,0.04730579953902697,0.2779695375849222,0.6772437973131378,0.02814264148186948
124,4.100223189983669,158.18846130371094,1.0222701000284364,122.87791442871094,1.0160856453816904,110.61509704589844,1.0203599693084415,129.19566345214844,1.0,73169.0,0.004411240576507713,0.004155009602171712,0.004089599037518618,0.0014219827966671307,0.004174749864066168,103.0,0.9227035641670227,0.8141061560679158,0.5182112643332559,0.9098924330037929,0.33883026242256165,0.04349934713672822,0.2535636676734683,0.667249960248156,0.02408519977787715
125,4.133558337869715,157.3423309326172,1.0168021046262028,121.7645492553711,1.0068791547282798,109.48518371582031,1.0099371756610125,128.58261108398438,1.0,72923.0,0.008637354273239362,0.004673743167101245,0.00459512608526169,0.0020050103841744945,0.004672134771411296,103.0,0.8977466821670532,0.8142058518345835,0.5143644666291842,0.9029370248384141,0.34000661969184875,0.05063024689829375,0.2284327304142726,0.6548635474878075,0.02523691030082365
126,4.166893485755762,156.54428100585938,1.0116448221560985,120.99444580078125,1.0005111180529702,108.42330169677734,1.0001419313110458,127.9670639038086,1.0,73086.0,0.005176821191062525,0.004280690079554778,0.004077019984917282,0.0024092519558764095,0.004169996127212526,103.0,0.8741647005081177,0.8116739183975042,0.5056508770489561,0.9079570159637245,0.34109407663345337,0.04336915336356295,0.21283145882932436,0.6465031860342251,0.021234543594911497
127,4.2002286336418075,156.13967895507812,1.009030139798643,120.2197036743164,0.9941047238914701,107.24445343017578,0.9892677413202368,127.08839416503906,1.0,72306.0,0.002706019484426364,0.0032951620527331524,0.002906646035401686,0.0026524039145757626,0.003027969655885488,103.0,0.8550742864608765,0.8109700439797528,0.5008712969878019,0.8999103898043511,0.34070727229118347,0.049907900632249716,0.1973695129034935,0.6374512188907084,0.02082380362937044
128,4.233563781527853,155.66845703125,1.0059849361267865,119.5523681640625,0.9885864821815992,106.46958923339844,0.9821200695362137,126.00142669677734,1.0,72714.0,0.0038241787669488214,0.002212784242758895,0.0016681530834607044,0.0027593073549128746,0.0018097403304930951,103.0,0.8370609283447266,0.8090693218178985,0.4957229694419232,0.9027076013953893,0.3414314389228821,0.044046628843838066,0.18102428693236516,0.6302364932212203,0.020286744706774704
129,4.2668989294139,154.4163360595703,0.9978932850643922,118.44232177734375,0.9794074347954467,105.44075012207031,0.9726296268019593,126.45829010009766,1.0,73778.0,0.006730427971270964,0.0014914019421720668,0.0009037738660091486,0.0027511603594307446,0.0010447604961765884,103.0,0.7995672821998596,0.9547290520209276,0.9072216649949849,0.918390718749222,0.34657523036003113,0.05102447282595165,0.16294830437257718,0.6452633761765136,0.01598669104303769
130,4.300234077299946,154.91517639160156,1.0011169687131303,118.27328491210938,0.9780096577164369,104.62652587890625,0.9651188814701503,124.32131958007812,1.0,71605.0,0.0009009742646437224,0.0013601445717167971,0.0008822243265783109,0.0026355640100403192,0.001003444825105913,103.0,0.805018961429596,0.811707748527803,0.4909433698764053,0.8972720323797351,0.3378712832927704,0.04280540831798303,0.15512883178548983,0.6177731910891803,0.019702586276625675
131,4.333569225185991,152.0305938720703,0.9824757705089202,116.33807373046875,0.962007267770374,103.12089538574219,0.9512303153989452,127.74058532714844,1.0,71554.0,0.005786036534146222,0.001734407862176617,0.0014923826722879087,0.0024082142615104523,0.0015914568265264853,103.0,0.9641324281692505,0.7976772786986053,0.4753053637812002,0.8983553044569994,0.3438187539577484,0.04426867545511613,0.390278670654331,0.7015413088400813,-0.010544596068403017
132,4.366904373072038,151.6437530517578,0.9799758675399123,115.92024993896484,0.9585522550545423,102.74215698242188,0.9477366737902642,127.2254409790039,1.0,72099.0,0.007650135846186679,0.0022695146487897912,0.00230559298034962,0.0020533290824690403,0.002395551694477954,103.0,0.9520261287689209,0.7955635075844788,0.4691327202873826,0.9088491113071978,0.3461636006832123,0.04171183663179125,0.366523807542407,0.6937501013565208,-0.005490350781955651
133,4.400239520958084,151.00234985351562,0.9758308919442098,115.28939819335938,0.9533357000205979,102.1976318359375,0.942713745848304,126.81766510009766,1.0,71668.0,0.010511202689371446,0.0025232718028374884,0.0027733151295446404,0.0015586617640431248,0.0028724694377428406,103.0,0.9346213936805725,0.794054994325687,0.46161466763409054,0.9037009015824979,0.34751999378204346,0.04751276716474371,0.3429145504269688,0.6834472146243153,-0.005328992797939802
134,4.43357466884413,150.0594940185547,0.9697378221920022,114.60018920898438,0.9476365850987066,101.38760375976562,0.9352417077177516,126.70233154296875,1.0,72356.0,0.00815828124905571,0.002149629174746381,0.0024684816073147265,0.0009242791955817228,0.0025837440726220735,103.0,0.9124020934104919,0.7931938378756888,0.4562717673724363,0.9141629816803537,0.35066497325897217,0.03720783322804801,0.32470009397976674,0.6757260564072264,-0.012057558794832005
135,4.466909816730176,149.54454040527344,0.9664100087887961,114.10304260253906,0.9435256467514224,100.58904266357422,0.9278754458117237,126.0843734741211,1.0,71690.0,0.003981638154975098,0.0010374942446244222,0.0012652330653303535,0.00017447801222541872,0.0013861209033019046,103.0,0.8933672904968262,0.7913191054075418,0.44910029292788395,0.9067796610169492,0.35067564249038696,0.04137364027321022,0.31021062909750313,0.6670279870815019,-0.010448485598537175
136,4.500244964616222,149.4178466796875,0.9655912688727473,113.70108795166016,0.9402018570146637,100.0261459350586,0.9226830507049898,125.1673355102539,1.0,71263.0,0.004152086643156139,-0.0006547589898013889,-0.0006137439101093264,-0.000638207213262009,-0.0005084222919853646,103.0,0.8766894936561584,0.7918555210979049,0.44237542623801973,0.9025774175163067,0.34993675351142883,0.039769488949401556,0.30026802127331154,0.6612339636563788,-0.013271645533493368
137,4.5335801125022686,149.26649475097656,0.9646131788778912,113.11859893798828,0.9353852166270381,99.43174743652344,0.9172000700819138,124.31806182861328,1.0,70305.0,0.00844353544474899,-0.0025644893489190955,-0.002690940438846828,-0.0014357636382544804,-0.002617250791026824,103.0,0.859197735786438,0.7942061968091411,0.4399829315126947,0.8932496474265313,0.347890168428421,0.04759424193527895,0.28640921698314487,0.6533074379954221,-0.008011733936472663
138,4.566915260388314,148.51055908203125,0.959728053720601,112.71237182617188,0.9320260976266828,98.79116821289062,0.911291099114828,123.48218536376953,1.0,70384.0,0.002784586189908539,-0.004249579785721305,-0.004419306874578441,-0.0021273683546927736,-0.004378176630382268,103.0,0.8405590057373047,0.7952186102902176,0.4365480791088884,0.8946398383181015,0.3469133675098419,0.04133565518030328,0.2747073198454194,0.647511232632605,-0.00955437115957622
139,4.600250408274361,148.8859100341797,0.9621537050749173,112.54209899902344,0.9306181002964183,98.42926788330078,0.9079527789482799,122.1002197265625,1.0,69587.0,0.003875563933041032,-0.005326470772030006,-0.005379246043213374,-0.0026226358407010274,-0.005355556655972601,103.0,0.824000895023346,0.7942048562710468,0.4338885136591605,0.8806585924547882,0.34324032068252563,0.04810357264892365,0.2640148303562447,0.639947589457467,-0.0004846381906585071
140,4.633585556160407,149.54965209960938,0.9664430423756776,112.8895034790039,0.9334908110426139,98.40776824951172,0.9077544573243875,120.28356170654297,1.0,68544.0,-0.0009494783546197538,-0.005582300798908827,-0.005411847923626802,-0.002855626011119311,-0.005389943067619731,103.0,0.81284099817276,0.7947644335511983,0.43456757703081234,0.8697042366107114,0.3347327709197998,0.048240772461395964,0.2534284547152194,0.6351303036026502,0.013408605115444228
141,4.666920704046452,143.64857482910156,0.9283081822102729,108.631591796875,0.898281856206192,94.77174377441406,0.8742142451752634,126.46713256835938,1.0,72002.0,0.007482412114184128,-0.0050301842686067,-0.00464481528239739,-0.0027940285144267946,-0.004618911495668875,103.0,0.9445047974586487,0.9223817856911382,0.8236437876725646,0.9176437601957586,0.3562094569206238,0.05083860114192496,0.34874031276908973,0.7122164428739998,-0.03144491921305992
142,4.700255851932499,143.1696319580078,0.9252130830310672,108.3165512084961,0.8956767646317405,94.31983184814453,0.8700456203533987,126.3203125,1.0,72974.0,0.004654051878276777,-0.003890818597549439,-0.0034124696529696063,-0.002455583785472199,-0.003394735320083262,103.0,0.9289725422859192,0.8991375923845023,0.7655877435799052,0.9287650659912691,0.3590638041496277,0.04438024207404768,0.32334804176830106,0.6996394236701928,-0.031746539904386084
143,4.733590999818545,142.71571350097656,0.9222797005159975,107.8868408203125,0.8921234608575456,93.95053100585938,0.86663903475918,126.03375244140625,1.0,72827.0,0.006508653488088323,-0.0025082960863728283,-0.0021117979663061873,-0.0019004605230396405,-0.002121436364360062,103.0,0.9122473001480103,0.8633885784118527,0.6549768629766433,0.9259513547189483,0.3630346953868866,0.04666183519599242,0.3005478737281503,0.6833832218336444,-0.0360975554157383
144,4.766926147704591,142.42604064941406,0.9204077315209026,107.5589599609375,0.8894121922283923,93.70996856689453,0.8644199860995103,125.43940734863281,1.0,72382.0,0.009050711532693712,-0.0012326753827382607,-0.001057162818627299,-0.0012259497232529474,-0.001107843401631136,103.0,0.8961309194564819,0.8452147403129692,0.5966676798098974,0.9227807595711317,0.36453795433044434,0.04686444243297339,0.2799452902655356,0.6715664251905458,-0.037824565406039415
145,4.800261295590637,142.35496520996094,0.9199484167516678,107.40682983398438,0.8881542180924717,93.64835357666016,0.863851623631606,124.99964141845703,1.0,71713.0,0.011559458116230215,-0.0003125090791038259,-0.00038989462668499297,-0.0005444639846768142,-0.00047722986988888615,103.0,0.8799910545349121,0.8125351516926266,0.4897159510827883,0.9143334353325173,0.3635503947734833,0.055130558955528354,0.2608732029060282,0.6558585451205744,-0.04063883657533619
146,4.833596443476683,142.20738220214844,0.9189946828641543,107.1913070678711,0.8863720460079374,93.1946792602539,0.8596667417852136,124.0083999633789,1.0,71976.0,0.008455985397841481,0.00016634923772056566,-7.026572098723616e-05,3.698621355999266e-05,-0.0001739453144552555,103.0,0.8627700209617615,0.7836547367641066,0.4044959430921418,0.9162380976628138,0.36486735939979553,0.04739294261418606,0.249485939757697,0.6447377697265314,-0.048857683060748294
147,4.86693159136273,142.19065856933594,0.918886608800805,107.05496215820312,0.8852446008834121,93.1070785522461,0.8588586761764373,123.32999420166016,1.0,71277.0,0.010491431361402043,0.00027902693803700846,5.792230642340118e-05,0.00044041852190435164,-3.7742245829182916e-05,103.0,0.8493727445602417,0.7748923215062362,0.37559100411072294,0.9093193850864324,0.3633069396018982,0.04951202398418065,0.23588254275572765,0.6365762351549844,-0.04814714039311592
148,4.900266739248775,142.24630737304688,0.9192462311630631,106.93562316894531,0.8842577788455952,92.97285461425781,0.8576205383733365,122.78050231933594,1.0,70236.0,0.011797254161518417,0.000205055089584452,0.00016941268185382042,0.0006304774271664257,9.295362286023185e-05,103.0,0.8407295942306519,0.7696812650682462,0.3649268181559314,0.8961302422904679,0.36203184723854065,0.05144366331959631,0.2239592231903867,0.6306795100782541,-0.04966481693043738
149,4.933601887134821,142.72006225585938,0.9223078037167772,107.15060424804688,0.8860354716842094,93.15463256835938,0.8592973343317676,121.88280487060547,1.0,69606.0,0.012636139836203236,0.00014442031337588346,0.0003749967485785177,0.0006231686043626236,0.00030931739781281907,103.0,0.8293601870536804,0.7624151174707161,0.34186708042410135,0.8860121434299462,0.3601331114768982,0.05753490917885465,0.21358790908829697,0.623335066606606,-0.043906006833344384
150,4.966937035020868,143.92323303222656,0.9300831212068862,108.7540283203125,0.8992942919601163,94.65094757080078,0.8730999704161834,119.70797729492188,1.0,69195.0,0.004202136503381609,0.00024107993694658786,0.0006898473055515007,0.0004780322344511955,0.0006110358815131028,103.0,0.8366574048995972,0.757872678661753,0.32867981790591805,0.8807805399625769,0.35784807801246643,0.05447995824900396,0.21789146614639787,0.6256003868666888,-0.02923909409441043
151,5.000272182906913,139.81832885742188,0.9035557704330008,105.5132064819336,0.872495720674739,91.77909088134766,0.8466087618762431,124.53834533691406,1.0,71743.0,0.011653823267666924,0.0005440051343908578,0.0010595421015683398,0.0002882252066480954,0.000947406731248873,103.0,0.9419847726821899,0.9005942507747563,0.7685488479712307,0.9144011521941396,0.37532123923301697,0.06017155456990275,0.3138145881828192,0.6987505122308781,-0.07267989560638008
152,5.03360733079296,140.94349670410156,0.9108270052480717,106.49607849121094,0.8806231546771575,92.9922866821289,0.8577997879035189,124.6393051147461,1.0,71394.0,0.0144228581563689,0.0010187417455115831,0.0014207211710151448,0.00015336634881722404,0.001272390756854648,103.0,0.9455122947692871,0.8473774640259218,0.622335210241757,0.9099529690666462,0.3755500018596649,0.061420614588511196,0.31254727288007395,0.6885357227393591,-0.06786038265411459
153,5.066942478679006,141.7424774169922,0.91599030278922,107.55956268310547,0.8894171761780781,94.1230697631836,0.8682306044981173,124.81700897216797,1.0,71369.0,0.011221711269241319,0.0015945825860164678,0.0017560318354591532,0.00016055770645849826,0.0015912037486170965,103.0,0.945570170879364,0.8473800482936102,0.6224411158906528,0.9096343313067972,0.37524130940437317,0.06173925234836029,0.3110033768162648,0.6881909473660784,-0.06635198837348955
154,5.100277626565052,142.57333374023438,0.9213595918616976,108.63037872314453,0.8982718252188494,95.37470245361328,0.8797761884889025,125.18405151367188,1.0,71506.0,0.01013877305850952,0.0022101913737394533,0.0021077723759311824,0.0003612810153888982,0.001956936730576685,103.0,0.9465318918228149,0.7568362561649838,0.3519564791765726,0.9113804662307702,0.37405073642730713,0.05741852432480659,0.3117920174530809,0.6711716637873476,-0.06433101873946026
155,5.133612774451098,143.5478973388672,0.927657568460292,109.65459442138672,0.9067411329345353,96.53228759765625,0.8904542385344354,125.45301055908203,1.0,71764.0,0.009738185087947104,0.0028262202589558385,0.0025406835830736794,0.0007573670075894395,0.002426908672271052,103.0,0.9474202394485474,0.7551000501644278,0.3460648793266819,0.9146688079124129,0.37338292598724365,0.05356938018582954,0.31161863887185776,0.6716276968396613,-0.06257107346181083
156,5.166947922337144,144.45053100585938,0.9334907082572178,110.67522430419922,0.9151807893039884,97.79500579833984,0.9021020799132673,125.89463806152344,1.0,71600.0,0.010718191191646409,0.003404785024780786,0.0030773928383830977,0.0012985443150665176,0.0030035406424091236,103.0,0.9493975043296814,0.7511778398510242,0.3338268156424581,0.9125785442078028,0.3723333179950714,0.05363310773779936,0.3125558659217877,0.6715148199989348,-0.06238772025494399
157,5.200283070223191,145.56329345703125,0.940681774994275,111.71501922607422,0.9237789226558603,99.03292846679688,0.9135211969210382,126.11554718017578,1.0,71244.0,0.012294977324063594,0.0038830832508848744,0.003649184305932418,0.0018893623723940847,0.003597764240010093,103.0,0.9495373368263245,0.7516843523665151,0.3342456908651957,0.9080411425075517,0.37296926975250244,0.059776443747689874,0.3131632137443153,0.6707896164291168,-0.06140752741522132
158,5.233618218109236,146.7030792236328,0.9480474760070544,112.98594665527344,0.9342883060803355,100.42850494384766,0.92639457866838,126.701904296875,1.0,70945.0,0.01058336862921197,0.00416895982711393,0.0040972504197554676,0.002406180204553915,0.0040424784587341205,103.0,0.9487146735191345,0.7440740479714333,0.32939601099443233,0.905788774832746,0.37061023712158203,0.05853888974005413,0.306434561984636,0.6679141680125888,-0.0593840829725424
159,5.266953365995282,147.65182495117188,0.9541786083399673,114.0763168334961,0.9433046495900318,101.70014953613281,0.9381247608207939,127.35595703125,1.0,70304.0,0.010183389337581478,0.004165351577696978,0.004230013643074694,0.0027220079065819044,0.004154747520718378,103.0,0.9447933435440063,0.745600060688818,0.3386151570323168,0.903336888226451,0.36924484372138977,0.05907975381294409,0.30139110150204823,0.6661438077141038,-0.057832690836762166
160,5.300288513881329,148.99961853027344,0.9628885298195152,115.37277221679688,0.9540251253644965,102.98651123046875,0.9499906996845238,127.58193969726562,1.0,70557.0,0.007428199633369964,0.003809223351302419,0.003908690825115148,0.0027307288262834535,0.0038137012773884903,103.0,0.9318446516990662,0.7483264122151829,0.35406834190796094,0.9096851551017251,0.36837393045425415,0.04935406513498879,0.29496718964808594,0.6637232328758221,-0.05377968093031747
161,5.3336236617673745,149.74050903320312,0.9676764277628798,115.94596099853516,0.9587648615158288,103.6343002319336,0.9559661766610412,128.75987243652344,1.0,69564.0,0.008637989105553162,0.003102356042194204,0.0031155356652376627,0.0023718189457310962,0.003018960247217113,103.0,0.9592987298965454,0.7592816207616967,0.3756540739462941,0.8956469118953507,0.36757558584213257,0.05213148102846696,0.2828618250819389,0.6699123346783088,-0.05057045262379465
162,5.366958809653421,150.78282165527344,0.9744122226473055,117.18133544921875,0.9689802549968041,104.97797393798828,0.9683607855172052,129.32273864746094,1.0,70383.0,0.0062728333633638444,0.002116045051735106,0.0019669662795605853,0.0016434725401152344,0.0018919298396683983,103.0,0.9651447534561157,0.7640576086081392,0.38963954363979936,0.9065418153247723,0.3625180721282959,0.040469351743324875,0.26760723470156145,0.671144060747037,-0.04417961958423222
163,5.400293957539467,151.7664794921875,0.9807689694482323,118.39071655273438,0.9789807077615768,106.30310821533203,0.9805843789205448,129.94569396972656,1.0,70056.0,0.0038564487683154236,0.0009646023408911371,0.0006629562339586957,0.0006095271937285277,0.0006253769981930943,103.0,0.9475803375244141,0.7683377107837539,0.39621160214685397,0.9035170305789494,0.35922959446907043,0.04179939899660807,0.25832191389745346,0.6655391054778877,-0.039515337971662484
164,5.433629105425513,152.99346923828125,0.9886982135924366,119.652587890625,0.9894152057648213,107.31414031982422,0.9899105623680127,130.1890869140625,1.0,70343.0,-0.0035975490849618486,-0.00023990518420489093,-0.0006007588905631091,-0.0006102755311581618,-0.0006013973587560388,103.0,0.9217298626899719,0.7720218548161627,0.40278350368906646,0.9056300130032315,0.35712212324142456,0.038404593616829526,0.2509418136843751,0.6588804643939078,-0.03208293825007396
165,5.466964253311559,153.768310546875,0.993705513717327,120.51473236083984,0.9965443357187541,108.5809097290039,1.0015957737902395,130.43023681640625,1.0,69970.0,0.000769303373036434,-0.0014241794262990488,-0.0017093625355199128,-0.0018543271154066747,-0.0016854515562633424,103.0,0.894317090511322,0.7757896241246248,0.4172645419465485,0.8971893111760784,0.3572767674922943,0.04640457506283018,0.24490495926825784,0.6502934572963542,-0.026303551245890004
166,5.500299401197605,154.67001342773438,0.9995326384432087,121.5358657836914,1.004988155894274,109.51821899414062,1.0102419068999955,131.0175323486328,1.0,70476.0,-0.0038761225725590376,-0.002554999357689201,-0.002651528486653022,-0.0029501076804156648,-0.002620933515548856,103.0,0.8645005226135254,0.7776548044724446,0.4208382995629718,0.9034805461188385,0.3559474050998688,0.0406384206140632,0.240379703728929,0.643229884995406,-0.02484720513734353
167,5.533634549083651,155.30250549316406,1.0036200271292433,122.3906021118164,1.012056027428649,110.64600372314453,1.0206450654398778,131.8490753173828,1.0,70042.0,-0.002746457666387425,-0.003602383290724324,-0.0034760323175377227,-0.0037368046321611366,-0.003449764877749627,103.0,0.8387844562530518,0.7795751120756118,0.42698666514377087,0.8984811945199856,0.35340824723243713,0.046898250295038225,0.23628679934896205,0.6353647763009715,-0.020777417066939186
168,5.566969696969697,156.1505126953125,1.0091001512812872,123.30386352539062,1.0196078467863263,111.42411804199219,1.0278227177106922,132.06387329101562,1.0,70410.0,-0.007632604862607001,-0.004492409513948138,-0.004210038466239581,-0.004098302047918734,-0.004190439937152435,103.0,0.8138758540153503,0.7833262320693084,0.4376509018605312,0.9030975437696402,0.35147103667259216,0.04207015968703905,0.22992472660133503,0.62938792968804,-0.01590502404557926
169,5.600304844855743,156.91590881347656,1.0140464132262386,124.1048583984375,1.0262313266550331,112.20980834960938,1.0350702540739571,132.49481201171875,1.0,70516.0,-0.009980618040016626,-0.005088891623081282,-0.004790752901851422,-0.003978661639009602,-0.004771185626049967,103.0,0.7883569002151489,0.786757615292983,0.4469198479777639,0.9011744559035898,0.3501797020435333,0.04531687305908063,0.2244171535538034,0.6220734791336917,-0.012889116354721447
170,5.63363999274179,157.45008850097656,1.0174984723592075,124.79730987548828,1.0319572539644755,113.02583312988281,1.0425976083139414,132.6830596923828,1.0,71034.0,-0.01058615825244938,-0.005224644722176628,-0.005056213156796628,-0.0033945613806856696,-0.005027124385911989,103.0,0.7652580738067627,0.78820940207037,0.4531914294563167,0.9062308634415187,0.3490315079689026,0.04107981220657277,0.2193034321592477,0.6162443153445626,-0.00992563064203298
171,5.6669751406278355,158.4329833984375,1.0238502887740326,125.44908905029297,1.0373468593020723,113.638671875,1.0482506894923573,133.3260498046875,1.0,70956.0,-0.010315680733478133,-0.004770348936999488,-0.004808677821097556,-0.0024310865485319285,-0.0047621514210803885,103.0,0.9620834589004517,0.7923877708251122,0.46086307007159366,0.9058366950926824,0.346569299697876,0.043877342593065416,0.38695811488809967,0.6993696670528649,-0.0027425212958996567
172,5.700310288513881,158.40182495117188,1.023648931805639,125.66077423095703,1.0390972981373405,113.91268157958984,1.050778269734406,133.27499389648438,1.0,70888.0,-0.011495585518491308,-0.003706588934506213,-0.003923561754337747,-0.0012278001918677903,-0.0038580745203036725,103.0,0.9623216986656189,0.7939519617800851,0.46706071549486516,0.9027098614506928,0.3441344201564789,0.045907192339038304,0.36822875521950116,0.6956714172920759,-0.002955186336005387
173,5.733645436399928,158.74330139160156,1.0258556740170395,125.9330825805664,1.0413490339878557,114.41940307617188,1.0554524809814099,133.1845245361328,1.0,70651.0,-0.007566077824178424,-0.002164319123442242,-0.0024495022520284113,4.6663590631170434e-05,-0.002370871010058719,103.0,0.9506208300590515,0.7975872009360566,0.4772331601817384,0.8952003243708978,0.34457656741142273,0.05121512379311219,0.35056828636537346,0.689091885168151,-0.0007311056464344573
174,5.766980584285974,159.1401824951172,1.028420460867146,126.31653594970703,1.0445198353956473,114.70748138427734,1.058109835912762,132.8214569091797,1.0,70941.0,-0.009979351824138671,-0.0004149394462324861,-0.0006445142312777144,0.0012207385441388723,-0.0005654624555699707,103.0,0.9310813546180725,0.8004351033487921,0.48440253168125624,0.8983853606027987,0.34444451332092285,0.04605838029506743,0.3354618626746169,0.6825803910119892,-0.00010192543088341326
175,5.80031573217202,159.331787109375,1.0296586780327277,126.56148529052734,1.046545337783203,115.02326965332031,1.0610227991258663,132.62692260742188,1.0,71219.0,-0.009701577318890209,0.001189575698823871,0.0010802443532227706,0.002150621669341052,0.0011475300296724439,103.0,0.9120675325393677,0.8018927533382946,0.4891250930229293,0.8983563959282012,0.34450581669807434,0.04652042837140659,0.3251098723655204,0.6759741397361799,0.00010378402665399758
176,5.833650880058066,159.5208282470703,1.030880329101008,126.64755249023438,1.0472570331807616,115.10411071777344,1.0617685109522548,132.3352813720703,1.0,71333.0,-0.009226354862056807,0.002311490049784196,0.002295552207333229,0.0027390407807330198,0.0023466511865112226,103.0,0.8954522609710693,0.804157963354969,0.49465184416749614,0.8962783334170981,0.34343403577804565,0.04711765592802935,0.3186042925434231,0.670876691473961,0.0014612619449537543
177,5.866986027944112,159.7751007080078,1.032523528180984,126.81411743164062,1.0486343697572618,115.44217681884766,1.0648869742156661,132.390625,1.0,70809.0,-0.006002914072462007,0.002731379429254457,0.0027155155923737004,0.002949391614734798,0.00276072024687664,103.0,0.8821970820426941,0.8058438899010013,0.50095326865229,0.8920706510784117,0.34432512521743774,0.049763152590203585,0.3137736728381985,0.6665106786440809,0.004501214726851709
178,5.900321175830158,160.0184783935547,1.0340963213474275,127.15103912353516,1.0514203976317043,115.64894104003906,1.0667942539633972,132.15823364257812,1.0,71587.0,-0.009691892914880595,0.00242676712818192,0.002314860973556562,0.0028035936825626475,0.0023749270262243684,103.0,0.8652858734130859,0.8076652651086557,0.5055945911967257,0.899628019202252,0.34408777952194214,0.042928594767134995,0.30811460181317835,0.6626088665748967,0.004332643678135092
179,5.933656323716204,160.34060668945312,1.0361780289672888,127.4789047241211,1.0541315400849163,115.95232391357422,1.0695927846142412,132.24838256835938,1.0,71459.0,-0.010897195752283179,0.0015896281030897516,0.001345516824534413,0.002373931746504509,0.0014402889722804806,103.0,0.8463081121444702,0.809102655602047,0.5092850445710128,0.8989344973771275,0.34276413917541504,0.04599147094712742,0.3019213814914846,0.6564232001032835,0.005283693593787973
180,5.966991471602251,160.69964599609375,1.0384982686667505,127.85884094238281,1.0572732579382114,116.31220245361328,1.072912454947457,132.5043182373047,1.0,70963.0,-0.0122563489640157,0.0005645273315139151,0.00023833340469374637,0.0017621114739224911,0.0003707302994902613,103.0,0.8288018703460693,0.8128367365152732,0.5197920042839226,0.8954886743643132,0.3425943851470947,0.04528992365448924,0.29546383326522274,0.6516141937578983,0.005322543025455161
181,6.0003266194882965,161.9738006591797,1.046732309279762,128.72206115722656,1.0644112832960138,117.00884246826172,1.0793385541233294,132.67030334472656,1.0,71814.0,-0.01408382303627606,-0.00027666272948001925,-0.0005711905496214784,0.001078777255147635,-0.00042139781583654665,103.0,0.95977783203125,0.8145997530657904,0.5265964853649706,0.9042420579458316,0.3402819037437439,0.04789785819514222,0.4658980143147576,0.7183803541726993,0.01773954820301334
182,6.033661767374342,161.88937377929688,1.0461867127537476,128.82666015625,1.0652762193744225,117.07331848144531,1.0799333078648177,132.8901824951172,1.0,71987.0,-0.016389482483644996,-0.0006743507543111665,-0.0008167248345065041,0.0004219822563434134,-0.0006849052923920591,103.0,0.9601902961730957,0.8167539509448466,0.5311514579021213,0.9084679454820798,0.33800217509269714,0.042453306410903585,0.44430244349674247,0.7154663239058472,0.0154489163567161
183,6.066996915260389,161.89474487304688,1.0462214226719035,128.97605895996094,1.0665116080168295,117.3652572631836,1.082626273421326,133.25048828125,1.0,71719.0,-0.01532189947533788,-0.0005738278209013312,-0.0004960757374915325,-0.0001371319624500018,-0.00041127713020859205,103.0,0.9488511681556702,0.8207076692833605,0.5373192598892902,0.9072038454240718,0.3357611894607544,0.04104737208272721,0.42497803929223776,0.7097823542208008,0.018556496541459855
184,6.100332063146435,162.01466369628906,1.0469963807593694,129.039794921875,1.0670386449241254,117.38736724853516,1.0828302251835829,133.346435546875,1.0,71567.0,-0.015765082378174033,-0.0001275258871979221,0.00015455389667126595,-0.000562075247053315,0.00018943469608827818,103.0,0.9326980113983154,0.8233683122109352,0.5459080302373999,0.9035552862156907,0.33435365557670593,0.03923945155670025,0.4103707015803373,0.7036439933587613,0.019698237610610916
185,6.13366721103248,162.3199005126953,1.048968929630939,129.12258911132812,1.06772327558225,117.61066436767578,1.0848900113042645,133.35443115234375,1.0,70780.0,-0.011897722103080655,0.00039429444028959005,0.0007908871093047569,-0.0008468243240718738,0.0008059354707117625,103.0,0.9120795726776123,0.8299378355467647,0.5591833851370444,0.897346501515017,0.3341274559497833,0.046236545507562406,0.3998869737213902,0.696587007741824,0.02393568174157571
186,6.167002358918527,162.4343719482422,1.0497086847616388,129.3473358154297,1.0695817210233707,117.72942352294922,1.0859854954765527,133.53366088867188,1.0,70911.0,-0.015036263862907517,0.0007395660934985205,0.001129031854225319,-0.001009622706063734,0.0011700454185208445,103.0,0.8920971155166626,0.8327386912232705,0.565807843634979,0.9025085591375953,0.33230721950531006,0.04057476677145512,0.39123690259621213,0.6913274349596293,0.02474190509503839
187,6.200337506804573,162.63087463378906,1.0509785550059936,129.59326171875,1.071615298671177,118.07266998291016,1.0891517445393333,133.62290954589844,1.0,71046.0,-0.014275877097793044,0.0007885182282298476,0.001069293501779816,-0.0010768375645555763,0.001169841045365762,103.0,0.8689083456993103,0.8362234796235303,0.5775131604875714,0.9031347723285791,0.3312433063983917,0.043157145399537286,0.3809644455704755,0.6837595281997028,0.0288564975668023
188,6.233672654690619,162.85037231445312,1.0523970270874539,129.82469177246094,1.0735290091746381,118.29814147949219,1.0912315880279388,133.79373168945312,1.0,71220.0,-0.01498686816723599,0.0005910022403320787,0.0007188902044866584,-0.0010739128409580424,0.0008736887211955991,103.0,0.846365749835968,0.8396658242066835,0.5884723392305532,0.9078972528523169,0.33026742935180664,0.04318949582510039,0.37117382757652345,0.6768490484836174,0.03137241763208028
189,6.267007802576665,163.16807556152344,1.0544501384679252,130.07139587402344,1.0755690217954568,118.58676147460938,1.0938939397070895,133.94638061523438,1.0,71382.0,-0.014301120104346976,0.0003152223586437363,0.0003115027924369773,-0.0010143531017613116,0.00047441407675456715,103.0,0.8250734806060791,0.8448068140427559,0.605166568602729,0.9083875237016582,0.3299660086631775,0.0438910169124852,0.36199602140595666,0.6706063745352647,0.03422694994211161
190,6.300342950462711,163.5234832763672,1.056746909529543,130.3980255126953,1.078269943997414,118.75811767578125,1.0954746010529455,133.8087921142578,1.0,71770.0,-0.017503793110580285,0.0001428597663047595,7.422866839552021e-05,-0.0008999003377911408,0.00018035042559556174,103.0,0.8003330826759338,0.8496307649435697,0.6165528772467604,0.9130578596509084,0.3288089334964752,0.04418350211185181,0.3503274348613627,0.6630055502920736,0.03523219727521672
191,6.3336780983487575,164.2219696044922,1.0612607766133748,130.7544708251953,1.0812174139888986,119.11341094970703,1.098751974971697,134.73265075683594,1.0,71309.0,-0.015826908864114447,0.0001713081618895485,0.00011546349832145836,-0.0007226057845094931,0.00011955713066604169,103.0,0.9619569182395935,0.8557732310554536,0.6299625573209553,0.9111108271791072,0.32632726430892944,0.04814351059208341,0.3706684990674389,0.7080746138897436,0.044663460142018496
192,6.367013246234803,163.79115295410156,1.0584766861894648,130.33860778808594,1.077778614881539,118.76258087158203,1.0955157714397363,134.5911102294922,1.0,70965.0,-0.013856602384777844,0.0003759604097347728,0.0003895977633064596,-0.00047569717705727723,0.0002937942711260442,103.0,0.9644447565078735,0.8618567838605885,0.643190305079969,0.9069820942448525,0.32456153631210327,0.05217080122183454,0.3595716198125837,0.7070495416661093,0.045015991704128
193,6.40034839412085,163.1956787109375,1.0546285198370848,129.72161865234375,1.072676690690371,118.1618423461914,1.0899743077543984,134.21197509765625,1.0,70444.0,-0.011999568639079833,0.0006477751765374732,0.0007476542656252259,-0.00016204115007572504,0.0006028304791629241,103.0,0.9634225368499756,0.8614454980788522,0.6482028277780932,0.9003233516097287,0.32396623492240906,0.06156461280881357,0.35758900687070583,0.7048121971529953,0.04275493543327512
194,6.433683542006896,163.45535278320312,1.0563066260506608,129.4939422607422,1.0707940194684984,117.60990905761719,1.0848830440080384,133.8141632080078,1.0,69829.0,-0.013488357455203298,0.0008745686294870125,0.0010345276909904328,0.00019659395457161176,0.0009097718619816496,103.0,0.952836811542511,0.8697150658513416,0.6646379011585445,0.89031262749898,0.3230220079421997,0.06948694410444717,0.3452147388620774,0.7000772527715999,0.050470364357758056
195,6.467018689892941,162.8223419189453,1.052215884702077,128.94659423828125,1.0662679622739546,117.13600158691406,1.08051152307486,133.8379364013672,1.0,69360.0,-0.011590059776926398,0.0010085958599800177,0.0011712083156347525,0.0005586532485146418,0.0011124078265696148,103.0,0.95150226354599,0.8680219146482123,0.6633506343713956,0.8843329253365974,0.3233106732368469,0.07754487964096288,0.34498269896193773,0.6980693078659735,0.04899392420249411
196,6.500353837778988,162.35691833496094,1.0492081519645937,128.42364501953125,1.0619436604097354,116.4864501953125,1.074519789073815,133.68966674804688,1.0,69574.0,-0.01214514822333268,0.001075966876154017,0.0011759116074099645,0.000865713063213167,0.0011776797445879701,103.0,0.9521658420562744,0.8691608934372036,0.6656940811222584,0.8870614035087719,0.3225899338722229,0.07496940024479805,0.34476959783827293,0.6988324547299962,0.0485110768124374
197,6.533688985665034,162.07080078125,1.0473591585687327,127.97123718261719,1.0582026699226836,115.73141479492188,1.0675550264099112,133.42236328125,1.0,69256.0,-0.01509745175807875,0.0011261384456410085,0.001119744608790969,0.0010545251057675273,0.0011309615521219699,103.0,0.9530810117721558,0.8702061915213122,0.6659639598013168,0.8830069359445124,0.32230591773986816,0.08089810281517748,0.34425898117130643,0.6982195910311343,0.05122469769842006
198,6.56702413355108,161.6038818359375,1.04434176227449,127.36128234863281,1.0531589128405088,115.16349792480469,1.0623163234151285,133.5314483642578,1.0,69782.0,-0.011922807632723464,0.001162706742531233,0.0010534374384209135,0.00107228607566592,0.0010127474249986914,103.0,0.9537174701690674,0.8685859772816295,0.6612020291765784,0.8897133822929416,0.3222006559371948,0.07029018767849857,0.34686595397093806,0.7002733237642206,0.04983335870183902
199,6.600359281437126,161.1072998046875,1.041132672568613,126.81192016601562,1.048616200421698,114.6557846069336,1.0576329631932821,133.5948028564453,1.0,70257.0,-0.00955412373155029,0.0011103489275967322,0.0009567280996581387,0.0008905734791486928,0.000833585050938843,103.0,0.9491495490074158,0.9631495794013408,0.9271958666040394,0.8957695838433293,0.3223675489425659,0.0689514483884129,0.3458587756380147,0.7180568265175791,0.04964413044648447
200,6.633694429323172,160.62120056152344,1.0379913263677734,126.28211212158203,1.0442351824718121,114.06501770019531,1.0521834818934754,133.38150024414062,1.0,70431.0,-0.009063967274980239,0.0008466635282867109,0.0007435883012703173,0.0005181171154551782,0.0005586605852746526,103.0,0.9551109671592712,0.9619817031326168,0.9243514929505473,0.8973930992304164,0.32312580943107605,0.06680342490189083,0.3514929505473442,0.7207841245415074,0.04817840530977265
201,6.6670295772092185,160.15789794921875,1.0349973001036528,125.73272705078125,1.0396922807890892,113.40491485595703,1.0460944168754527,133.2374725341797,1.0,69955.0,-0.009075949135115419,0.0002804301299619861,0.0003186396694250131,3.783326377083521e-06,0.0001286945722610855,103.0,0.9487664103507996,0.9572153527267528,0.9184046887284683,0.891328168798736,0.32563677430152893,0.07430813923857092,0.333314273461511,0.7134082255471813,0.05008988565326658
202,6.700364725095264,159.7995147705078,1.0326813005362383,125.46903991699219,1.0375118343454741,113.04108428955078,1.0427382913963266,132.429443359375,1.0,71739.0,-0.010882561541546293,-0.0005749674563424985,-0.0003516345748379877,-0.0005692445125057273,-0.0004928005392200199,103.0,0.9458674788475037,0.9541021387715655,0.9124186286399308,0.9081345890931186,0.32995957136154175,0.06178793862980404,0.318432094118959,0.7110876461092122,0.04654267601374021
203,6.73369987298131,159.08224487304688,1.0280460473465824,124.77587127685547,1.0317799767667855,112.23823547363281,1.0353324777682873,131.95155334472656,1.0,72170.0,-0.0113543157839949,-0.0015793682442900472,-0.0011957313758106656,-0.0010972312822759812,-0.0012727469626083953,103.0,0.9377955198287964,0.9544824719412498,0.9122627130386587,0.9114675423086638,0.33016666769981384,0.05974993685274059,0.30390744076486076,0.7065668726019827,0.04374757674050682
204,6.767035020867357,158.32501220703125,1.0231525405329194,124.07182312011719,1.0259581557418669,111.4216537475586,1.0277999860270453,131.80569458007812,1.0,72390.0,-0.012063219413702114,-0.0025063729151743497,-0.0020452942036324677,-0.0014771923964519403,-0.0020897840998768086,103.0,0.9194912910461426,0.9531841414560023,0.9090067688907307,0.9133001942923469,0.3310750424861908,0.05856526456561782,0.2926232905097389,0.699663866824185,0.0418912730757407
205,6.800370168753402,157.5494384765625,1.0181405072373713,123.18285369873047,1.0186072084829243,110.36094665527344,1.0180155796934303,131.59620666503906,1.0,71544.0,-0.012149574023829157,-0.0031210273887466726,-0.0026879365535617803,-0.0016283124055346803,-0.0027542821911796796,103.0,0.905473530292511,0.9546153416079615,0.9135357262663536,0.9066071926400893,0.3295217454433441,0.06646475910484832,0.2811137202281114,0.6928798334835666,0.03940656194741307
206,6.833705316639449,157.0039825439453,1.0146155769978191,122.35822296142578,1.0117882820809636,109.57748413085938,1.010788593335196,131.21185302734375,1.0,71436.0,-0.007502349147420706,-0.003254378773154039,-0.002937130436409947,-0.0015094967792519303,-0.0030617994934762013,103.0,0.9001962542533875,0.8383634768650726,0.5806176157679601,0.9045394112060778,0.3321714997291565,0.05385248496359608,0.27862702278962986,0.669830765900112,0.034970139927180684
207,6.867040464525495,156.1541748046875,1.0091238171345753,121.72660064697266,1.0065653551619775,108.8036117553711,1.0036500705260156,131.0084991455078,1.0,72610.0,-0.010096563794635804,-0.002846681839938051,-0.0026897076512690083,-0.001131455248971713,-0.0028642006477775568,103.0,0.867039144039154,0.9525180186383877,0.9077537529265941,0.9209441548393643,0.3333103358745575,0.055198305493195335,0.26610659688748106,0.6816529802360511,0.030503001718340993
208,6.9003756124115405,155.43763732910156,1.004493297115577,120.85005187988281,0.9993171151193478,107.9342041015625,0.995630290309319,130.4240264892578,1.0,72786.0,-0.0067889553288862925,-0.00195480978006051,-0.0019547273501126015,-0.0005526549699883719,-0.0021261213051272636,103.0,0.850626528263092,0.9517031663598311,0.9080455032561207,0.9234223947628835,0.33568426966667175,0.05388089619649337,0.2580303904597038,0.6759824000382411,0.024359305895743602
209,6.933710760297587,154.59335327148438,0.9990372332477095,119.83145904541016,0.9908943032380739,106.7776107788086,0.9849613892386285,130.12135314941406,1.0,72568.0,-0.005551820967345578,-0.0007353353590550312,-0.0008532602598199471,0.00012823122255960806,-0.0009571335679451616,103.0,0.8321025371551514,0.953404622790578,0.9114347921949069,0.920761803255808,0.3359243869781494,0.057021049826805226,0.24585216624407452,0.6687536241234295,0.023475415289119443
210,6.967045908183633,153.47579956054688,0.9918152036859338,118.86473083496094,0.9829003633816739,105.83057403564453,0.976225525798687,129.6473388671875,1.0,72984.0,-0.004097046905630786,0.0005847703087625057,0.00040345581744885637,0.0007948196446707605,0.0004033972605105454,103.0,0.8117914795875549,0.9497789469838138,0.9037597281595966,0.9249486731047069,0.33902686834335327,0.051453628367931464,0.2345445577112792,0.6615799902970383,0.016217663048417305
211,7.0003810560696795,152.48974609375,0.9854429754726476,117.6021728515625,0.9724601874610654,104.46563720703125,0.9636347769972471,130.95736694335938,1.0,70975.0,-0.0009402388113066984,0.0017457763749744424,0.0015516185532388302,0.0013351580115344062,0.0016390159462500008,103.0,0.9632465243339539,0.8180439121756486,0.5322155688622755,0.8993854146866882,0.33220458030700684,0.04291959703478426,0.2705600563578725,0.6816652892646273,0.0029592628227618437
212,7.033716203955725,152.05398559570312,0.9826269361467984,117.15438842773438,0.9687574282842629,103.97483825683594,0.9591074419848291,129.9424591064453,1.0,71453.0,-0.0005605419139838308,0.002502599703653529,0.0023269953974209496,0.0016635482961568726,0.002440505738186685,103.0,0.949478030204773,0.8110879412574232,0.5242607028396289,0.9049723896853944,0.3374258279800415,0.04299863214955165,0.25525870152407876,0.6737590549635655,0.005537627428230794
213,7.067051351841771,151.53143310546875,0.9792500160980194,116.49066925048828,0.9632690902725077,103.21165466308594,0.9520675169737582,129.12742614746094,1.0,71513.0,0.0002860467732365979,0.0026812744567727854,0.002529872299513302,0.0017371311007687905,0.0025991757444196856,103.0,0.9283402562141418,0.813274043414018,0.5189965460825304,0.9011668934926156,0.34154176712036133,0.04875497756943394,0.23640456979849817,0.6642199902849292,0.0067426864703517345
214,7.100386499727818,150.6075897216797,0.9732798115674662,115.8158950805664,0.9576893377911964,102.6115951538086,0.9465323168173508,128.96981811523438,1.0,71655.0,0.0013016474862667937,0.0022353332203503256,0.0020922084345002226,0.001561036747245369,0.002079858797863652,103.0,0.9096890091896057,0.8091689344777057,0.5070965040820599,0.901865277148467,0.3447888195514679,0.04670744600513518,0.2222454818226223,0.6562319441966454,0.0028524955490614283
215,7.133721647613863,150.1825714111328,0.9705331920779291,115.15570068359375,0.9522301464219083,101.77682495117188,0.9388320469528443,128.3155059814453,1.0,71581.0,0.0015345308687870485,0.001283135471144457,0.0011238951494151937,0.001184369149671706,0.001048613534183124,103.0,0.8913607001304626,0.809525805264898,0.5044914153197078,0.9049888742793567,0.34527871012687683,0.042960453120258923,0.21015353236193962,0.6499023700587417,0.0004400253397109956
216,7.167056795499909,150.11355590820312,0.9700871893511689,114.86813354492188,0.9498522346299768,101.25931549072266,0.9340583230102464,127.31123352050781,1.0,71350.0,-0.00016028787427169178,0.00010260923140649342,-9.054368919504495e-05,0.0006863792659962801,-0.0001653541621864709,103.0,0.8770748376846313,0.8091380518570427,0.5004484933426769,0.8994755685542837,0.3438403606414795,0.04361857697544249,0.2004625087596356,0.6442098492284227,-0.0027337545774998497
217,7.200391943385956,150.12838745117188,0.9701830360569861,114.58507537841797,0.9475116078287339,100.9216537475586,0.9309435897135017,126.50688171386719,1.0,70464.0,0.0017355011767683504,-0.0009329745939609157,-0.0011627058927985824,0.00015879958461727307,-0.0011676423546421292,103.0,0.86548912525177,0.810333409022101,0.4998722752043597,0.8916559107129299,0.34315645694732666,0.05093260445929188,0.1900403042688465,0.6382978072576453,0.00012817726786637854
218,7.2337270912720015,150.01126098632812,0.9694261231826525,114.35921478271484,0.9456439515438898,100.63614654541016,0.9283099517400102,125.6184310913086,1.0,70012.0,0.0020289985767611984,-0.0014733538201656723,-0.0017287136654817814,-0.0003142807133359072,-0.0016315453674214135,103.0,0.8563573360443115,0.8102991868060713,0.49577215334514085,0.8852529492837002,0.34283363819122314,0.05057721243693654,0.18248300291378622,0.6345534179651395,-0.00336940603776297
219,7.267062239158048,149.84487915039062,0.9683509045815929,114.24396514892578,0.9446909446583726,100.33834838867188,0.925562936855202,124.96236419677734,1.0,69943.0,-0.0012176753950523533,-0.0013290022759290478,-0.0015921714898196491,-0.0006710056063532174,-0.0014168413172591541,103.0,0.8456803560256958,0.8112701294863913,0.4930014440329983,0.8844364077792671,0.34183523058891296,0.050036670797400165,0.17464220865561958,0.6305966893072421,-0.001103474792610467
220,7.300397387044094,149.6748504638672,0.9672521187349672,113.92243957519531,0.9420322283088192,99.74978637695312,0.9201337944302375,124.37762451171875,1.0,69623.0,-0.003964590057446982,-0.0005684238535495869,-0.0008186665874192513,-0.0008810790285658313,-0.0006302655657696424,103.0,0.8342254757881165,0.8111495722199082,0.4909584476394295,0.883462128998693,0.33862394094467163,0.04762267311279455,0.1654769257285667,0.626262040838677,-0.0010328621257707817
221,7.33373253493014,146.83502197265625,0.948900136979483,111.54684448242188,0.9223882745175406,97.9522705078125,0.903552755439631,128.14483642578125,1.0,71373.0,0.008036798823999575,0.00048504392123451353,0.00027138344027641227,-0.000943969376776981,0.00040915491601372115,103.0,0.9568731188774109,0.7985045698887068,0.47356843624339734,0.9038332467992959,0.3474105894565582,0.052350982055795456,0.2771075897047903,0.6759645545091248,-0.0275201416633809
222,7.367067682816186,146.3611297607422,0.9458376769562707,111.44841003417969,0.9215743135194641,97.91505432128906,0.9032094577528507,127.83763122558594,1.0,72045.0,0.006576477957106058,0.0013771118661768137,0.0012228549734902643,-0.0008869105493393926,0.0012835458738731792,103.0,0.9440634846687317,0.7993383764776644,0.4694704698452356,0.9147177572941266,0.3503393530845642,0.047751453746730656,0.2669720313692831,0.6716377201370956,-0.029238715689304036
223,7.400402830702232,146.06759643554688,0.9439407602075012,111.32217407226562,0.9205304599561271,97.90864562988281,0.9031503413000226,127.74590301513672,1.0,71717.0,0.007712985942948586,0.001719926327481123,0.0016343180167442074,-0.0007475268814821648,0.0016429026067802132,103.0,0.92642742395401,0.7995919145158518,0.4677412607889343,0.9110391260162601,0.35251662135124207,0.056465955284552845,0.2519765188170169,0.6628859898095478,-0.026398548914201975
224,7.433737978588279,145.76568603515625,0.9419897078193349,111.20760345458984,0.9195830679000029,97.71668243408203,0.9013795924076325,127.43384552001953,1.0,72206.0,0.005279028209247888,0.0013661955462612992,0.0013310643698132229,-0.0005679909059864344,0.0013403770642927111,103.0,0.9091234803199768,0.8130533935314701,0.5070354264188571,0.9164244647231283,0.35320502519607544,0.050970288484725415,0.23550674459186216,0.6588376515471046,-0.029127084665531808
225,7.467073126474324,145.6951904296875,0.9415341401435375,111.14083862304688,0.9190309850683359,97.64246368408203,0.9006949675824997,127.23725891113281,1.0,71213.0,0.005284395730375674,0.0004716628200176574,0.000441824357366275,-0.00038112872251458755,0.000497063561791614,103.0,0.8958990573883057,0.8510571571669967,0.6169519610183534,0.9079006081313665,0.3528129458427429,0.059882453433966115,0.22236108575681407,0.659077220382404,-0.030197782578250308
226,7.50040827436037,145.4746856689453,0.9401091599524231,110.9591064453125,0.9175282296060678,97.46696472167969,0.8990760916724942,126.93037414550781,1.0,71675.0,0.00553199257510098,-0.0005814444045457092,-0.000657153122399537,-0.00020754267439313916,-0.0005469555873351888,103.0,0.8817956447601318,0.8132821764911057,0.5036623648412976,0.9124877465021833,0.3542700409889221,0.053100612356618164,0.21226369026857342,0.6470619865649099,-0.034674958516776204
227,7.533743422246417,145.63778686523438,0.9411631778932453,111.42878723144531,0.9214120512588028,97.8796615600586,0.9028829801044346,126.34314727783203,1.0,71839.0,0.0012403519786175488,-0.0013563374264600409,-0.001504523297878146,-5.58108546660351e-05,-0.0013693074460796903,103.0,0.8796140551567078,0.7986701745105954,0.453319227717535,0.9145756152210722,0.35813379287719727,0.05464105208213981,0.2110135163351383,0.6430976836251814,-0.02499040525154081
228,7.5670785701324625,145.53878784179688,0.9405234109926882,110.92491912841797,0.9172455324093246,97.46159362792969,0.8990265464548859,126.83284759521484,1.0,70822.0,0.006842717916453911,-0.0015449615065644764,-0.0017486931360385317,7.570386738856102e-05,-0.0016340298410908315,103.0,0.8607650995254517,0.7965227377556879,0.45265595436446304,0.9073461962231276,0.35116538405418396,0.053014579649985905,0.19461466775860609,0.634936423240224,-0.035569397672792616
229,7.600413718018509,145.98345947265625,0.9433970372282053,111.43838500976562,0.9214914159259536,98.0770492553711,0.9047037668515397,126.20795440673828,1.0,70212.0,0.006929774899496144,-0.0010839314851224821,-0.0012899790698882977,0.00018915959158616663,-0.0012291643094742308,103.0,0.8615097999572754,0.7981684042613798,0.44422605822366545,0.8995310938580983,0.3525254726409912,0.06248238399057063,0.194596365293682,0.6339332224618399,-0.0258704862765946
230,7.633748865904555,145.9098663330078,0.9429214521848349,111.08573913574219,0.9185753637438816,97.48432922363281,0.8992362691089665,126.019775390625,1.0,70093.0,0.0056521564370797805,-0.00016434894997149224,-0.00031308008407663094,0.0002852650962911705,-0.000307862788111778,103.0,0.8484643697738647,0.7925375334674408,0.44369623214871673,0.9017728489090161,0.3485969007015228,0.05196325648414986,0.17906210320574095,0.6281218987406385,-0.029489155775408334
231,7.667084013790601,144.91717529296875,0.9365063296124639,110.63150024414062,0.91481923214386,97.3021469116211,0.8975557431838689,128.79434204101562,1.0,70161.0,0.00744424350847811,0.0008547314697873109,0.0007965567527740404,0.00035798199481806625,0.0007724639203169361,103.0,0.9481090903282166,0.8582355819709906,0.6486509599350067,0.9026476945244957,0.3520130217075348,0.05605444627418691,0.37059049899516827,0.703823777371416,-0.032877841489705954
232,7.700419161676647,144.78285217285156,0.935638285835398,110.31548309326172,0.9122060653091578,97.0167465209961,0.8949230904845913,128.41627502441406,1.0,70564.0,0.010032788713152024,0.0015859995300277294,0.0016107447201071767,0.00039539562651384866,0.0015931972017062049,103.0,0.940272331237793,0.8630841033199176,0.6580267558528428,0.9114558441726192,0.35212814807891846,0.05775068135728956,0.34035768947338585,0.6965163323509426,-0.043580840845994284
233,7.733754309562693,144.59970092773438,0.9344546973478229,110.42272186279297,0.9130928298254316,97.19068145751953,0.8965275391650375,128.59539794921875,1.0,70837.0,0.00881905852677986,0.001752609345386494,0.0018233221314711873,0.0003831220442307141,0.0018356020698949507,103.0,0.930136501789093,0.8469067483565557,0.6148481725651849,0.9135542945576477,0.3528294265270233,0.05856332215630642,0.3267219108657905,0.6878897257467335,-0.0416196417369016
234,7.767089457448739,144.58973693847656,0.9343903065053347,110.37922668457031,0.9127331653044244,97.18678283691406,0.8964915766562338,128.57986450195312,1.0,71078.0,0.009854388200665726,0.0012789923010348243,0.00135785533021276,0.0003109082660966367,0.001399971810248385,103.0,0.91881263256073,0.8050217132352251,0.48556515377472637,0.9170644853301679,0.35357075929641724,0.052950739297602765,0.31547032837164807,0.6753294481739407,-0.044646288164658154
235,7.800424605334785,144.7528533935547,0.935444423053879,110.89408111572266,0.9169905308317223,97.60774993896484,0.9003747534630142,127.92024230957031,1.0,71134.0,0.004493211478736908,0.0003074140566644349,0.0003826847931672139,0.000175703319697625,0.00043318825060369235,103.0,0.9160459041595459,0.7818624005398261,0.40838417634323954,0.9177870100379325,0.3585289716720581,0.055569891363249295,0.3175415413163888,0.6700010817930095,-0.04069901268767796
236,7.833759753220831,144.45114135742188,0.9334946525660992,110.2082748413086,0.911319553144767,96.89397430419922,0.8937905881525561,128.4409637451172,1.0,70331.0,0.008400008875618065,-0.0008583950387539372,-0.0007637112380324427,-1.0440766212507006e-05,-0.000731874278271707,103.0,0.9005826115608215,0.7794808358571137,0.41156815628954513,0.9110941264865144,0.356454461812973,0.055379951809726144,0.2953605095903656,0.661253129690145,-0.04635105558217584
237,7.867094901106878,144.78968811035156,0.9356824620948693,110.73987579345703,0.9157153967677693,97.52545928955078,0.8996156700580097,127.79324340820312,1.0,69947.0,0.007499746907637994,-0.0018579523945866738,-0.0017016111973808129,-0.00022405386514917245,-0.0017080185300969736,103.0,0.8990042209625244,0.7783702898861519,0.40124665818405364,0.9061196466046584,0.3587552309036255,0.06317848537451097,0.29655310449340216,0.6596271764566202,-0.03620134661767742
238,7.900430048992924,145.05955505371094,0.937426438266764,110.67713928222656,0.9151966243846361,97.18441772460938,0.896469759870071,127.73509979248047,1.0,69168.0,0.00529246361667568,-0.002392210649826611,-0.0021427704753148296,-0.0004292343530518197,-0.0021895649944051313,103.0,0.8888095617294312,0.7742115814634899,0.40180430256766136,0.9000390370852309,0.3550437390804291,0.05690305790500976,0.2835993523016424,0.6546600879205826,-0.04018556691958013
239,7.933765196878969,145.64894104003906,0.9412352601380523,111.35719299316406,0.9208200337416775,97.82345581054688,0.9023645147377863,126.79256439208984,1.0,69152.0,0.0023751213481818523,-0.002320010104893896,-0.001980939267281569,-0.0005863582685118418,-0.002054956523742978,103.0,0.8886743783950806,0.7756536325775104,0.3950572651550208,0.8998308392973324,0.35574015974998474,0.055562784645413144,0.2857907218880148,0.655567419948609,-0.03097883963926272
240,7.967100344765016,145.699951171875,0.9415649057528122,111.12088012695312,0.9188659469369633,97.5091323852539,0.8994650638567572,126.96780395507812,1.0,68057.0,0.003683458876339585,-0.00170126872258248,-0.0013127821736058736,-0.0006585257668923532,-0.001393423470467002,103.0,0.8773247003555298,0.7752668106636104,0.39804869447668867,0.8881247553177607,0.35200196504592896,0.05895863238940363,0.2732562410920258,0.6496024042577051,-0.03285189696613126
241,8.000435492651063,144.3971710205078,0.9331458770532647,110.1016616821289,0.9104379618420914,96.90596771240234,0.8939012203714201,129.11248779296875,1.0,69054.0,0.011113951660942978,-0.0007677015457183259,-0.0003873531110291247,-0.0006189734211964558,-0.00045592097178972206,103.0,0.9540676474571228,0.7727092806595804,0.3934022648941408,0.8972946282387796,0.35668474435806274,0.06430780425686738,0.3468589799287514,0.6821413153008483,-0.04605334079675234
242,8.033770640537108,144.63795471191406,0.9347019069069624,110.63735961914062,0.9148676837053639,97.35198974609375,0.8980155143580665,128.76339721679688,1.0,69420.0,0.006193581613699872,0.00017060342318650146,0.000492843605994619,-0.0004596479778852317,0.00044389641020272416,103.0,0.9513267278671265,0.767094017094017,0.38431287813310283,0.9020504690870345,0.36037805676460266,0.06099430858390291,0.3478392394122731,0.6810592438946153,-0.043617019746371846
243,8.067105788423154,144.81642150878906,0.935855222823873,110.73625183105469,0.9156854299816829,97.45201873779297,0.8989382236592915,128.42221069335938,1.0,69073.0,0.006577788312243232,0.0008432971271829301,0.0010803515316234634,-0.0001903951549304691,0.0010467756685229384,103.0,0.9434667229652405,0.7693503008893972,0.3897036468663588,0.8999856675657012,0.36139482259750366,0.06651552463224276,0.32969467085547177,0.675033191149125,-0.044977926503609086
244,8.1004409363092,145.1538543701172,0.9380358339889345,111.23674011230469,0.9198240008601373,98.1346664428711,0.9052352519131561,128.1532440185547,1.0,69508.0,0.007385457818292723,0.001112213080286662,0.001261590905764964,0.0001569600581853675,0.0012291682840710636,103.0,0.9410555958747864,0.7664873108131438,0.38260344133049434,0.9056534938565974,0.36319687962532043,0.06324512371496697,0.33094032341600965,0.6746302060201326,-0.04151623168845391
245,8.133776084195246,145.6259765625,0.9410868555163909,111.71280670166016,0.9237606271443549,98.7257080078125,0.9106872667752268,128.1795196533203,1.0,68883.0,0.008256421463943703,0.0010044811227796849,0.0010811967501000246,0.0005355915254177056,0.00103509217232548,103.0,0.9400955438613892,0.7649589400384227,0.3776258293047631,0.8975100652777235,0.36477407813072205,0.0735123584672113,0.33057503302701685,0.6723687032236814,-0.038769484571093936
246,8.167111232081293,146.2006378173828,0.9448005209359163,112.06949615478516,0.9267101159509022,98.9518814086914,0.9127735849229515,128.03155517578125,1.0,69252.0,0.006796305712806122,0.0006810993631377599,0.0007085133015454965,0.0008886775861879266,0.0006413824006703644,103.0,0.9337640404701233,0.761965960068542,0.37835730376018023,0.9028473091364205,0.3647949695587158,0.06393408427200667,0.31760815572113443,0.669126379791945,-0.04009693693094688
247,8.200446379967339,146.65809631347656,0.9477567804424979,112.64520263671875,0.9314706711325683,99.52278900146484,0.9180398755957205,128.21678161621094,1.0,69186.0,0.004539586394773171,0.00035928604530835847,0.0003625392300595764,0.0011582666578200194,0.0002792509368876818,103.0,0.9345802068710327,0.760134516617042,0.37748966553927094,0.9019868585732165,0.36568546295166016,0.06433823529411764,0.31825802908102796,0.6690294432103133,-0.041332011476508584
248,8.233781527853385,147.1811981201172,0.9511372503692702,113.19364929199219,0.9360058129948942,100.22296142578125,0.9244985591973781,128.57589721679688,1.0,68945.0,0.005721367194675586,0.0002208151510019344,0.00022387694950815626,0.0012946663711423663,0.0001393673649207587,103.0,0.9359868764877319,0.7618633210046656,0.3812459206613968,0.8988449103045474,0.3648410737514496,0.06570713391739674,0.31861628834578287,0.6695794995652392,-0.03995170501375715
249,8.26711667573943,147.7740936279297,0.9549687520166262,113.83824920654297,0.9413360525520548,100.98558807373047,0.9315333467071913,129.0867919921875,1.0,68315.0,0.005909802023459976,0.0003413947881675455,0.0003647630975321092,0.0012641248161282947,0.0002951428345875228,103.0,0.9367919564247131,0.7653468003610725,0.38468857498353215,0.8906315185648728,0.36317476630210876,0.07335992907801418,0.3174412647295616,0.6690180134718229,-0.0392785832655676
250,8.300451823625476,148.81167602539062,0.9616739785072215,114.74420166015625,0.9488274336337936,101.89186096191406,0.9398931872811085,128.9526824951172,1.0,68037.0,0.004814942595805449,0.0006657340294820616,0.0007210360856982996,0.00105583303886722,0.0006736669109533225,103.0,0.9459561705589294,0.7650249129150315,0.39109602128253745,0.8870071964956195,0.36227408051490784,0.06770181476846057,0.32022281993621116,0.6727062988470273,-0.03631385589298403
251,8.333786971511524,148.7349853515625,0.9611783760962782,114.94390869140625,0.9504788243550502,102.3358154296875,0.9439884091740449,130.29197692871094,1.0,66997.0,0.0065504127059494155,0.0010332020473433447,0.0011155077765862783,0.0006854051756238037,0.0010846842836890467,103.0,0.9567853808403015,0.7650243045708515,0.39251011239309225,0.8734485815602837,0.36101239919662476,0.07575876095118898,0.4060032538770393,0.6912804551474633,-0.040311681676460896
252,8.36712211939757,149.30215454101562,0.9648436251242849,115.54712677001953,0.9554668747590898,102.86791229248047,0.9488966934235563,130.25637817382812,1.0,67497.0,0.0036900614727412573,0.001240568255770301,0.0013252338658830114,0.00019303942243746431,0.001295718212397255,103.0,0.9570896625518799,0.7638067864744605,0.3928767204468347,0.8799671464330413,0.36042970418930054,0.06937056737588652,0.4028771649110331,0.6915099151349269,-0.038758877714015046
253,8.400457267283615,150.03868103027344,0.9696033212591477,116.26873016357422,0.9614338612046077,103.72134399414062,0.9567691047685599,130.3977813720703,1.0,66374.0,0.0044277953515387825,0.0011191776831915826,0.0011704119431829437,-0.00035869514915270567,0.0011301564902045141,103.0,0.9642317295074463,0.7662839867016201,0.3981830234730467,0.8763169707691901,0.3597647249698639,0.07949354387262021,0.3868532859252117,0.6889664198826088,-0.03133725505529159
254,8.43379241516966,150.47438049316406,0.9724189661541087,116.81169128417969,0.9659236428159944,104.26375579833984,0.9617725383564326,130.1573944091797,1.0,66831.0,0.0023995933092055555,0.0006035296116969654,0.0005939196072041972,-0.0008959554017210741,0.0005438133695367318,103.0,0.9629519581794739,0.7641114652381878,0.3980936990318864,0.8823506112856804,0.35995614528656006,0.07175675318845555,0.38809833759782136,0.6896988696019175,-0.0297885073855444
255,8.467127563055707,150.85084533691406,0.9748518158721335,117.23917388916016,0.9694585249027425,104.81622314453125,0.9668687284738618,130.12017822265625,1.0,67137.0,0.0032095317261937317,-0.000228805983045999,-0.0002992890429540826,-0.001341980789353505,-0.0003423817912103536,103.0,0.9629427194595337,0.7673563012943682,0.4034437046635983,0.883242119665316,0.3602007329463959,0.07427774561911277,0.37180690230424357,0.6866838812855477,-0.026842819652657564
256,8.500462710941754,151.23435974121094,0.977330222357738,117.69666290283203,0.9732415319782859,105.2669677734375,0.9710265856561042,129.88735961914062,1.0,67210.0,0.0015137838253558022,-0.0011624955186845093,-0.0012628770568387793,-0.0016314361016167352,-0.0012780295795159985,103.0,0.9605278372764587,0.7642463919059663,0.40194911471507216,0.8842024943429985,0.36085283756256104,0.07509340630426775,0.3706293706293706,0.6850921668174992,-0.02482878278695581
257,8.5337978588278,151.67845153808594,0.9802001014998177,118.0716552734375,0.976342368826562,105.73060607910156,0.9753033795112983,129.6306915283203,1.0,66787.0,0.0026970999732491563,-0.0019037208231943163,-0.001989235472698358,-0.0017188746781774931,-0.001966450054892419,103.0,0.9586166739463806,0.7629528700695246,0.40176980550107055,0.8786375835394411,0.362541139125824,0.08427616692101247,0.36857472262566066,0.6824755003182703,-0.021032442461912514
258,8.567133006713846,151.88291931152344,0.9815214449750744,118.4727554321289,0.9796590927106014,105.88579559326172,0.9767349125672223,129.60728454589844,1.0,68357.0,-0.003887098980881687,-0.002183844597551769,-0.002223300005780626,-0.0015898113679545752,-0.002174968413954097,103.0,0.9521659016609192,0.7665150118739364,0.4031920651871791,0.889543887045351,0.3627459704875946,0.07351161428850284,0.3466945594452653,0.6789215313929098,-0.022269011637240828
259,8.600468154599891,152.0902557373047,0.9828613267020735,118.72842407226562,0.9817732336970021,106.17731475830078,0.9794240074036049,129.5654754638672,1.0,68284.0,-0.004199821181743335,-0.0018711015000561835,-0.0018652647828785822,-0.0012606529544538381,-0.001819236393210327,103.0,0.9516192674636841,0.7650401265303731,0.4025833284517603,0.8885939228316742,0.3629074692726135,0.07602316351096362,0.3457764630074395,0.6779044286117294,-0.020562195253623274
260,8.633803302485937,152.2479248046875,0.9838802402938516,118.901123046875,0.9832012930019517,106.60197448730469,0.9833412465474911,129.5207977294922,1.0,68487.0,-0.0003565345455962543,-0.001036154923705371,-0.0010160636123274886,-0.0007793260699631261,-0.0009981205964488065,103.0,0.9504819512367249,0.7637167150943488,0.4006015740213471,0.8912356041382002,0.3630550503730774,0.07470882946190384,0.3453356111378802,0.6774775403417224,-0.017231536614133357
261,8.667138450371983,152.20428466796875,0.9835982222088341,118.62714385986328,0.9809357408858514,106.37605285644531,0.9812572508318418,130.9637908935547,1.0,66788.0,0.002792344123366597,6.91180660873827e-05,5.843532818701521e-05,-0.00021567505918866544,4.424677000548362e-05,103.0,0.9655472636222839,0.7739663811862411,0.4076780259926933,0.866735014340034,0.3582361042499542,0.0805896933438883,0.32886147212074024,0.6790580356319451,-0.01800486969960745
262,8.70047359825803,152.30332946777344,0.9842382849325573,118.79785919189453,0.982347397318417,106.51873779296875,0.9825734364280214,130.9169464111328,1.0,67414.0,0.0014027710012674,0.0011141852362547909,0.0010309704196319056,0.0003496553301012088,0.001006875130227453,103.0,0.9665505290031433,0.7717585862481582,0.40582074939923457,0.8748588707061007,0.35776305198669434,0.06922148539392917,0.32991663452695286,0.6808972387427794,-0.01866337235886376
