frame_index,time_s,R_skin_raw,R_normalized,G_skin_raw,G_normalized,B_skin_raw,B_normalized,frame_luminance,face_detected,skin_pixel_count,BVP_detrended,BVP_butterworth,BVP_cheby1,BVP_cheby2,BVP_elliptic,gt_bpm,bisenet_conf,vote_mean,highconf_pct,roi_coverage,green_cv,hair_rej_frac,clust_agree,quality_score,BVP_pca
1,0.0,155.3748779296875,1.0046485198155044,120.8819808959961,1.0006115481033242,108.43507385253906,1.0016665908268452,128.1311492919922,1.0,67591.0,-0.0009127407626221828,-0.00045316708036459674,-0.0005924392684637912,0.0002730075215573651,-0.0005574570924056383,,0.969325602054596,0.7664235376504762,0.37031557455874303,0.882481199080844,0.35734865069389343,0.0658032170461667,0.38732967406903285,0.6925535281301642,-0.0014521216900293572
2,0.03333514788604609,155.2962188720703,1.0041399131034143,120.8774185180664,1.0005737826066852,108.547119140625,1.0027016066916186,128.08401489257812,1.0,67872.0,0.0004635861962665466,0.00012249508106024296,-9.165140639237905e-05,0.00039362701731414937,-8.981503403450561e-05,,0.969478189945221,0.7653818953323904,0.36922442244224424,0.8861499895550449,0.35818663239479065,0.061024650094004596,0.3878624469589816,0.6932544719295389,-0.003540761310057084
3,0.06667029577209219,155.29641723632812,1.0041411957197592,120.85182189941406,1.0003619042768788,108.53700256347656,1.0026081550344834,128.1505584716797,1.0,67833.0,0.0009829856212567323,0.0005249997235050359,0.000259202212155136,0.00047814319216307174,0.00023910717992285882,,0.9693562388420105,0.7653747684263804,0.36862589005351376,0.8856407979945686,0.358353853225708,0.061886358888656776,0.3881444134860614,0.6931410786708059,-0.0023676647708845214
4,0.10000544365813828,155.2847137451172,1.004065521355419,120.8936767578125,1.0007083616590897,108.54535675048828,1.002685326651801,128.19354248046875,1.0,67913.0,-6.908292120230697e-05,0.000642318928833427,0.00038007079185454134,0.0005168355391560911,0.0003567921261241749,,0.9692153334617615,0.7654695468221596,0.36960523022101804,0.8866852935032379,0.35816723108291626,0.06101159390014623,0.38814365438134085,0.6932646185821171,-0.0026689861395143896
5,0.13334059154418437,155.32102966308594,1.0043003388093035,120.85045623779297,1.0003505998890887,108.45816040039062,1.0018798523008208,128.17083740234375,1.0,67947.0,-8.131001356195822e-05,0.00046860045487845154,0.0002731762507623309,0.0005085260201781732,0.0002576855206549041,,0.9688006043434143,0.7648166953655055,0.36769835312817345,0.8813183392349897,0.3585514724254608,0.06552784155025487,0.38580069760254315,0.6918391750314226,-0.00403387277773944
6,0.16667573943023045,155.41342163085938,1.0048977420375682,120.86433410644531,1.0004654752041164,108.37644958496094,1.0011250504547278,127.81876373291016,1.0,67985.0,-0.0010774852218380093,9.535643867060302e-05,1.2168189633190689e-05,0.0004589041768982683,-2.1027307279166637e-06,,0.9688892960548401,0.7680174548307225,0.37321467970875927,0.8818112248206804,0.3575306534767151,0.06506089731117942,0.38390821504743694,0.6921977144195532,-0.002281945198726751
7,0.20001088731627656,155.45770263671875,1.0051840614708338,120.82694244384766,1.0001559623294871,108.41596221923828,1.0014900475379132,127.92064666748047,1.0,67663.0,0.0009207685217634543,-0.0003332583700599843,-0.0002927443206960691,0.0003787394789977227,-0.00032483365723879297,,0.968670666217804,0.767238618841415,0.3736015252057993,0.8776346680156167,0.357242226600647,0.06910774738316666,0.38464153229977976,0.6914864572013832,-0.0015154251774412153
8,0.23334603520232264,155.4642333984375,1.0052262891474149,120.97856140136719,1.0014110019861913,108.37157440185547,1.0010800160588684,127.82585906982422,1.0,67818.0,-0.0037700421282701457,-0.000676481374039455,-0.0005349025925830368,0.0002773222129741316,-0.0006033003478890103,,0.9683258533477783,0.7663255576199043,0.37262968533427704,0.8796451223783026,0.3572355806827545,0.06759017860617145,0.38360022412928724,0.6912521911097955,-0.0027062387986077404
9,0.26668118308836875,155.5358123779297,1.0056891163222768,120.96508026123047,1.0012994106273931,108.5481948852539,1.0027115438587801,127.96656799316406,1.0,67516.0,8.310066591937781e-05,-0.0008397080373456422,-0.000639742725418077,0.00016254154856212258,-0.0007457612948245972,,0.9680284261703491,0.7655814917945376,0.37235618223828426,0.8757279790393919,0.35733410716056824,0.07324539216830746,0.38356833935659695,0.690117810025885,-0.0009742776005654263
10,0.3000163309744148,155.5309295654297,1.005657544227637,121.0257339477539,1.0018014770124783,108.55577850341797,1.0027815973634502,127.90281677246094,1.0,67805.0,-0.0014262685056878333,-0.0007909606836762573,-0.0005754193187351429,3.451782929330864e-05,-0.0007014720480963472,,0.9680027961730957,0.7645503035666003,0.3706806282722513,0.8794765036253032,0.3567337989807129,0.0685629791042453,0.38430794189219086,0.6908022714783528,-0.0006778411448019571
11,0.3333514788604609,155.16278076171875,1.003277106954583,120.6237564086914,0.9984740715159539,108.19326782226562,0.9994329129827674,128.35006713867188,1.0,67876.0,0.00034115620964830784,-0.0005539799394810911,-0.00035043273245670864,-0.00010871943224618097,-0.0004681450542264768,,0.9587423801422119,0.7640943288742217,0.3720313512876422,0.8803974214301464,0.3576502799987793,0.06927636613616613,0.4294596028051152,0.6973121627896338,-0.0030781667203608146
12,0.366686626746507,155.12435913085938,1.003028674034885,120.6689224243164,0.9988479373020802,108.18413543701172,0.9993485527764393,128.270751953125,1.0,67829.0,-0.0012966623104507802,-0.0001919157328517852,-7.774066467751554e-06,-0.0002715758182424325,-9.729610901697e-05,,0.9595914483070374,0.7642896106385174,0.372790399386693,0.8797877997846868,0.3575208783149719,0.0685629791042453,0.42960975394005513,0.6977076583357946,-0.0035876712108914646
13,0.4000217746325531,155.1727294921875,1.0033414350974117,120.64788818359375,0.998673824468913,108.18281555175781,0.9993363603656668,128.32603454589844,1.0,67532.0,-0.00037718489590227167,0.00020599421769848143,0.0003795281409756791,-0.0004526646296173811,0.0003186967952198127,,0.9604175090789795,0.763573811921262,0.3716756500621927,0.8759355098123144,0.357954740524292,0.07346589361453754,0.42847835100396847,0.696760266876465,-0.003506914098737929
14,0.4333569225185992,155.1666259765625,1.003301969979112,120.68682861328125,0.9989961574034382,108.05757141113281,0.9981794203931678,128.13876342773438,1.0,68117.0,-0.0035256499423566012,0.0005350330253485947,0.0007157673526545546,-0.0006428906822086753,0.0006645895976613771,,0.9600931406021118,0.7647185479885099,0.3743705682869181,0.8835233536972904,0.3568394184112549,0.0653073401040248,0.4286448316866568,0.6982467866689173,-0.002090611650446352
15,0.4666920704046453,155.18524169921875,1.0034223385899266,120.63313293457031,0.9985516865583778,108.23843383789062,0.9998501330508226,128.41317749023438,1.0,68081.0,0.0010501939519036996,0.0006942352888554108,0.0009019523917997666,-0.0008194405773173365,0.0008379982502681847,,0.961195707321167,0.7662490268944345,0.3768746052496291,0.8807829641896088,0.35756915807724,0.06911095011384806,0.4233927233736285,0.6971695248656886,-0.0012962469248469395
16,0.5000272182906914,155.1637420654297,1.0032833227107152,120.64183044433594,0.9986236809834089,108.18438720703125,0.9993508784964132,128.2480926513672,1.0,68473.0,-0.0002360238317086205,0.0006218560322208239,0.0008706178168265851,-0.0009507698243212276,0.0007831784313505332,,0.9610829949378967,0.7656107760236396,0.3767762475720357,0.8858543779755744,0.35817524790763855,0.0640654108880149,0.42307186774349015,0.6977568117458178,-0.00403384873204804
17,0.5333623661767375,155.1302490234375,1.0030667578740444,120.64984130859375,0.9986899916380427,108.20755767822266,0.99956491521038,128.25601196289062,1.0,67769.0,-0.00031594716939015166,0.0003366065960622829,0.0006255444543579953,-0.000998051545826837,0.000524620631416544,,0.961323618888855,0.7652269720176875,0.3760568991721879,0.8767465328089422,0.35774362087249756,0.07334144069550817,0.4231728371379244,0.6962762360420549,-0.002904525063112024
18,0.5666975140627836,155.06053161621094,1.002615967560264,120.68814849853516,0.9990070828732016,108.1668930053711,0.9991892761964047,128.1757049560547,1.0,67923.0,-0.002539040519204727,-4.203128924027894e-05,0.00026420439457645824,-0.0009272443494043838,0.0001715341312528614,,0.9617154598236084,0.7657347290314033,0.3775598839862786,0.8787388739391431,0.35786202549934387,0.07072811012212793,0.4224783946527686,0.6967549920731959,-0.003923383892478446
19,0.6000326619488296,155.12017822265625,1.0030016404288495,120.63843536376953,0.9985955778964449,108.16217041015625,0.9991456513278023,128.2344970703125,1.0,67843.0,-0.0008291797159726833,-0.0003183944333405532,-3.809008775283713e-05,-0.0007167924170426205,-0.00010391914097507308,,0.9614251852035522,0.7659989485527862,0.37738602361334256,0.8777038915338439,0.3580154478549957,0.07224177188987788,0.42275547956310894,0.6965484984216866,-0.003769537153592035
20,0.6333678098348757,155.10220336914062,1.0028854156554565,120.7239761352539,0.9993036493819262,108.10883331298828,0.9986529510751379,128.00657653808594,1.0,68153.0,-0.004110168231440281,-0.0002914772470001793,-8.697806055071079e-05,-0.00036958131605608984,-0.00012523494107892125,,0.9615094065666199,0.7658797118248647,0.37756224964418295,0.881714448354378,0.35840675234794617,0.06793365762782033,0.42178627499889954,0.6970411637859566,-0.003566165660293512
21,0.6667029577209218,155.10284423828125,1.002889559492878,120.60375213623047,0.9983084843383825,108.05876159667969,0.998190414705772,128.26998901367188,1.0,67461.0,-0.0017456920284273925,0.00015442127123622954,0.0002480299531669491,8.496899471059638e-05,0.00022144472112752735,,0.9607617259025574,0.7660673080248835,0.3770623026637613,0.8727618505485407,0.35919713973999023,0.076743945352929,0.3671454618223863,0.6845539541886247,-0.004280834772412383
22,0.7000381056069679,155.13453674316406,1.0030944821196501,120.64083099365234,0.9986154079398307,108.00938415527344,0.9977342916854252,128.03863525390625,1.0,67974.0,-0.0032917319083150265,0.0009813750641665434,0.0009623826298734441,0.0005879900492906952,0.0009256562498112968,,0.9600992202758789,0.7667490511077765,0.37860064142172006,0.8793986752225212,0.3588455319404602,0.06944731939557028,0.36736104981316386,0.6857352541498666,-0.0034847379438234256
23,0.733373253493014,155.07339477539062,1.0026991402970808,120.5545883178711,0.9979015263779436,108.11613464355469,0.9987203969543825,128.275390625,1.0,67691.0,0.0002950432715989326,0.001988035456180919,0.0018929154311578284,0.0010626563767044985,0.00183665158034894,,0.9602405428886414,0.7663992751375122,0.376830006943316,0.8757374249637756,0.3590942919254303,0.0737166218174291,0.3677298311444653,0.6850912974877672,-0.004228258011217593
24,0.76670840137906,155.12281799316406,1.0030187090925144,120.5436782836914,0.9978112175816326,108.08842468261719,0.9984644268045216,128.17758178710938,1.0,67822.0,0.0005167812057026155,0.0028689112394087676,0.0027589178059797535,0.0014242999442849158,0.0026937063815484297,,0.9595229625701904,0.7663245947725911,0.3765002506561293,0.8774322086524529,0.35915839672088623,0.07228058373007659,0.367520863436643,0.6850849388875822,-0.003355778115304511
25,0.8000435492651062,155.04391479492188,1.0025085237756923,120.57180786132812,0.9980440627089042,108.05927276611328,0.9981951366220827,128.2744903564453,1.0,67387.0,-0.0013173412259071815,0.0033209774359158465,0.0032560293353531885,0.0015993257534913745,0.0032077101626515558,,0.9599846005439758,0.7660429063963871,0.3758440055203526,0.871804491823639,0.359184205532074,0.07920202856551439,0.3670144093074332,0.6839352887062756,-0.004571368736279915
26,0.8333786971511523,155.0591583251953,1.0026070879086464,120.56103515625,0.9979548906666728,108.09257507324219,0.9985027659459106,128.2552490234375,1.0,67384.0,-0.00035268915900002473,0.0031542799816248993,0.0031666599949259364,0.001540906113910918,0.0031594252275482606,,0.9595744013786316,0.7655872808579683,0.3737088923186513,0.8717656799834402,0.359453946352005,0.07909853032498447,0.3693903597293126,0.6842333636101166,-0.004723841308478591
27,0.8667138450371984,155.0802764892578,1.0027436372179641,120.56788635253906,0.9980116020646358,108.07645416259766,0.9983538493912145,128.28363037109375,1.0,67105.0,-0.000629009637991701,0.0023621783129314784,0.002442443999624515,0.0012408812153138476,0.0024814797494929685,,0.9598219394683838,0.7654720214589076,0.37348930780120704,0.8681561788449597,0.359076589345932,0.08314789898571724,0.36934654645704496,0.6836155346125717,-0.0037006355130441045
28,0.9000489929232445,155.14939880371094,1.0031905796827103,120.5539321899414,0.997896095219564,107.99119567871094,0.9975662760363975,128.10714721679688,1.0,67387.0,-0.001128445509209458,0.0011239775314906934,0.0012257423471812186,0.0007361751238496785,0.001292809854021224,,0.9603205919265747,0.7660181736338858,0.3752949381928265,0.871804491823639,0.3590514361858368,0.0793055268060443,0.36840933711249946,0.6842767658419536,-0.004080918989644569
29,0.9333841408092906,155.2918701171875,1.0041117942066258,120.7586898803711,0.9995909955520064,107.81548309326172,0.9959431349236645,127.73564147949219,1.0,67105.0,-0.008347340954746846,-0.0002601324446070519,-0.00019739201123275475,0.0001028790849557727,-0.00013444016694395957,,0.9608902335166931,0.7674539900156471,0.38021011847105285,0.8681561788449597,0.3596258759498596,0.08477799627406334,0.3653528053051188,0.6832194380394764,-0.0015149184326321355
30,0.9667192886953366,155.24819946289062,1.00382942128519,120.66670227050781,0.998829559777796,107.8453140258789,0.9962186975023969,127.7922592163086,1.0,67644.0,-0.0057490570968894705,-0.0014735165553394916,-0.001492618609370005,-0.0005528661924587635,-0.0014570963150892964,,0.9609962701797485,0.7675773165395304,0.3809946188871149,0.8751293728006624,0.3591884672641754,0.07537259366590768,0.3664183076104311,0.6849885773883843,-0.0022562156617813457
31,1.0000544365813828,155.22674560546875,1.003690701394366,120.71114349365234,0.999197426028503,107.85047149658203,0.9962663395236816,127.78578186035156,1.0,67458.0,-0.0069985087409394076,-0.002281655341592889,-0.002383169196747189,-0.0011178929735506378,-0.0023745189476615442,,0.9603214859962463,0.7647672131795585,0.3761155089092472,0.872723038708342,0.3588722050189972,0.07678275719312772,0.39237747932046607,0.6892240688481661,-0.0019567940773883886
32,1.0333895844674288,155.22035217285156,1.0036493616829467,120.66773986816406,0.9988381485863962,107.85869598388672,0.9963423130428308,127.80487823486328,1.0,67507.0,-0.005754691119507799,-0.0025864751270509873,-0.0027279263010093974,-0.0014892175491602218,-0.002719151197597426,103.0,0.9600892066955566,0.7645775006048755,0.3739167790006962,0.8733569654315877,0.35977718234062195,0.07579952390809357,0.3931888544891641,0.6894476488674021,-0.004136250766990134
33,1.066724732353475,155.15765380859375,1.003243956255211,120.70211791992188,0.9991227160242823,107.83490753173828,0.9961225677434734,127.98439025878906,1.0,66937.0,-0.0075390967701848,-0.002425750570329096,-0.002548658825087357,-0.0015975971983261514,-0.002505420610780717,103.0,0.9607642292976379,0.763738042238722,0.3736647892794717,0.8659827157938315,0.3589153289794922,0.08433812875181122,0.39118872970106217,0.6876823111120764,-0.0031523475413338248
34,1.100059880239521,155.17771911621094,1.003373697831622,120.62722778320312,0.9985028061329619,107.7662353515625,0.9954882100014861,127.80987548828125,1.0,67640.0,-0.006532096870531828,-0.0019344292051756801,-0.0020043478115984643,-0.0014190926369731598,-0.0019080878068039177,103.0,0.9616082906723022,0.764217425586438,0.37520697811945597,0.8750776236803974,0.3581099808216095,0.07294038501345478,0.39180958013010053,0.6899370122092305,-0.00177848920992138
35,1.1333950281255671,155.13186645507812,1.003077216130394,120.66472625732422,0.9988132031496529,107.79231262207031,0.9957290982096977,127.84895324707031,1.0,67402.0,-0.007440469821704099,-0.001293582017516873,-0.0013273152968079059,-0.0009828447063596048,-0.0011905695368883034,103.0,0.9611470699310303,0.7636667556847967,0.37546363609388445,0.8719985510246325,0.3578907251358032,0.07648519975160423,0.3925996261238539,0.689302411884231,-0.0029019580473032096
36,1.166730176011613,155.31629943847656,1.004269753342621,120.84651947021484,1.0003180129388114,108.03995513916016,0.9980166904713537,127.90335845947266,1.0,68100.0,-0.006699245207701432,-0.0006834713849911571,-0.0007441983360227052,-0.0003652117405604738,-0.0006034625444083829,103.0,0.9636841416358948,0.7654038179148311,0.3779882525697504,0.8821700606249029,0.3573991358280182,0.06553448365200269,0.38697503671071953,0.6909112889497635,-0.0007477007603974954
37,1.2000653238976593,155.27113342285156,1.0039777114672017,120.82719421386719,1.0001580463786328,108.1009521484375,0.9985801489923167,128.06777954101562,1.0,67258.0,-0.00551869380203962,-0.00024467676744703717,-0.00040602858026649193,0.0003223151406259335,-0.0002986317628459751,103.0,0.9640763998031616,0.7650985756341253,0.3773677480745785,0.8712627597284833,0.3572465479373932,0.07879941965904969,0.3867197954146719,0.6887748670151019,-0.00041609260774989887
38,1.2334004717837053,155.18203735351562,1.003401619402819,120.80206298828125,0.9999500203820956,108.15850067138672,0.9991117521972729,127.95586395263672,1.0,67698.0,-0.0045835389293722995,-4.790622884157456e-05,-0.00034828852851035547,0.0009538047350156175,-0.0002875170694677417,103.0,0.963355541229248,0.7648625759500526,0.38057254276344943,0.8769625369190114,0.3568243980407715,0.07188196279599979,0.3867617950308724,0.689662645456137,-0.0015210460197914305
39,1.2667356196697515,155.17630004882812,1.0033645221916172,120.77766418457031,0.9997480570739821,108.12832641601562,0.9988330181822124,127.98039245605469,1.0,67590.0,-0.004474898576895203,-7.922253901619624e-05,-0.0004941796552226418,0.0014115973986547539,-0.00046109121424587767,103.0,0.9632933735847473,0.7644178132859891,0.38132859890516346,0.8755635006995182,0.3566000759601593,0.07339758536711746,0.38659565024411896,0.6892824224434696,-0.0013584232603662573
40,1.3000707675557976,155.14210510253906,1.003143418866342,120.7654037475586,0.99964657019589,108.1439208984375,0.9989770718678719,127.72515869140625,1.0,67922.0,-0.004149446630739628,-0.0002522811825849401,-0.0007014038839139024,0.0016081929966965795,-0.0006582603112222943,103.0,0.9625979661941528,0.7638369502272214,0.3831306498630782,0.8798642416705529,0.35620519518852234,0.0680993833877403,0.386575778098407,0.6898361358716254,-0.001970074305775645
41,1.3334059154418436,155.222900390625,1.003665838369837,120.79358673095703,0.9998798573941925,108.00857543945312,0.9977268211909633,128.21749877929688,1.0,66741.0,-0.0065045941659990225,-0.00045199715795587314,-0.0008357824447445267,0.001501742884373782,-0.0007526723621064478,103.0,0.957465648651123,0.7670247673843664,0.38513057940396456,0.864565521529613,0.3565983474254608,0.0787216954246334,0.37149578220284385,0.6844750508122814,-0.002702792725737025
42,1.3667410633278898,155.6409912109375,1.0063691989733798,121.24987030029297,1.0036567859761303,108.52783966064453,1.002523512922704,128.2484893798828,1.0,67768.0,-0.006702989259971537,-0.0005951082268371683,-0.0008403161340772041,0.0011047389652721264,-0.0007155268375619135,103.0,0.9636715650558472,0.7707423365993783,0.38997757053476567,0.877130764551326,0.35478711128234863,0.06875396383686465,0.360538897414709,0.6861735038528809,0.004826768434550731
43,1.4000762112139358,155.6200714111328,1.0062339322804068,121.19847106933594,1.0032313241853983,108.5595932006836,1.0028168355448737,128.3507080078125,1.0,67544.0,-0.0049700997501633815,-0.0006759314064490428,-0.0007652645153381017,0.00048128627286697965,-0.0006265529777633284,103.0,0.9640678763389587,0.7709986576651269,0.3909155513443089,0.8742315010160365,0.35483884811401367,0.07178265877997955,0.35978029136562834,0.685687533486094,0.004589754035549901
44,1.433411359099982,155.61749267578125,1.0062172582679252,121.2142333984375,1.003361798292516,108.53642272949219,1.002602798830907,128.3164520263672,1.0,67572.0,-0.005783680339198793,-0.0007667633074651418,-0.0007395668941763607,-0.00026423318408296296,-0.000625773598625463,103.0,0.9635854363441467,0.768306399100219,0.3846711655715385,0.8745939089579478,0.35509705543518066,0.07099312719224447,0.3598087965429468,0.6851604978639109,0.003011402116687753
45,1.466746506986028,155.5556640625,1.0058174766195471,121.156494140625,1.0028838563551168,108.54364013671875,1.0026694694701603,128.37283325195312,1.0,67329.0,-0.004608498828428842,-0.0009661155613497338,-0.0008926722597921331,-0.0010048000640273305,-0.0008281842667402819,103.0,0.964327335357666,0.768475198898939,0.3847673365117557,0.87144872574779,0.35570618510246277,0.07475958115996428,0.3586121879130835,0.6845377782162267,0.003358005308739146
46,1.5000816548720741,155.5159454345703,1.0055606573622107,121.15479278564453,1.0028697732351326,108.56256103515625,1.0028442508500213,128.47299194335938,1.0,67700.0,-0.004550316560893164,-0.0013205637840883494,-0.0012644815140420028,-0.0016143287380038695,-0.001245208941011135,103.0,0.9636893272399902,0.7691580502215657,0.38580502215657314,0.8762506309781132,0.3556274473667145,0.06929757574973143,0.36016248153618907,0.6856988260415915,0.0023990742764345707
47,1.53341680275812,155.51461791992188,1.0055520736989805,121.12313079833984,1.0026076882668176,108.52252960205078,1.0024744613741623,128.37734985351562,1.0,67544.0,-0.004378694465624555,-0.0017658608076392553,-0.0017526365163786385,-0.001988439438736612,-0.0017504022588967372,103.0,0.9641127586364746,0.7687926882229855,0.3853488096648111,0.8742315010160365,0.35490110516548157,0.07153673910511124,0.3594989932488452,0.685240647696667,0.004752984174902022
48,1.5667519506441663,155.55624389648438,1.0058212258057857,121.18224334716797,1.0030969977450113,108.43818664550781,1.001695345182887,128.3104248046875,1.0,67593.0,-0.007010914755004538,-0.0021262030025013794,-0.0021316243943264018,-0.002063557766190859,-0.0021153787341894516,103.0,0.9634937644004822,0.7688665986122823,0.3845072714630213,0.8748657149143811,0.35429492592811584,0.07142025083806837,0.35965262675129084,0.6851500460387442,0.005099797515126514
49,1.6000870985302125,155.6400909423828,1.0063633778684304,121.16170501708984,1.002926989857131,108.40062713623047,1.0013483900485904,128.21295166015625,1.0,67408.0,-0.006429908481466434,-0.0021794430280496564,-0.0021424596944881274,-0.0018260935596186864,-0.002099661051569494,103.0,0.963204026222229,0.7688899438246697,0.38416805126987896,0.8724712338696108,0.355172336101532,0.07509610282031037,0.3585776169000712,0.6842791422492558,0.00638217928939705
50,1.6334222464162584,155.732421875,1.0069603864455123,121.09042358398438,1.002336951336898,108.32838439941406,1.0006810493687905,128.1305694580078,1.0,67826.0,-0.005015339715467387,-0.0017584702229015393,-0.0016133579914063263,-0.0013148605102663428,-0.0015595559658180462,103.0,0.9619224667549133,0.7705157314304248,0.3879338306843983,0.8778814667167135,0.3548409044742584,0.06976352881790296,0.35984725621443103,0.6853910496068352,0.008516795359133543
51,1.6667573943023046,155.7471466064453,1.0070555960434107,120.95406341552734,1.0012082176890205,108.25391387939453,0.9999931295910395,128.1404571533203,1.0,67712.0,-0.002519065599106113,-0.0008380175289441007,-0.0005522732375708121,-0.0006116562217460348,-0.0005207688341760692,103.0,0.9654950499534607,0.7702672101449276,0.3861353969754253,0.8764059486675037,0.35485196113586426,0.07028125444920465,0.247843809073724,0.6637509656202227,0.008821646074580126
52,1.7000925421883506,155.78807067871094,1.0073202096616116,120.92523193359375,1.0009695624853427,108.11969757080078,0.9987533094158322,128.1600799560547,1.0,67602.0,-0.003656613460225583,0.0004363685121857542,0.0008367194036368046,0.00017318919211469817,0.0008159936505474493,103.0,0.96540766954422,0.7698638107353827,0.38472234549273693,0.8749822031814241,0.3547956049442291,0.0710966723185048,0.24892754652229224,0.6637347212666292,0.007965832613575252
53,1.7334276900743968,155.69508361816406,1.0067189585843126,120.8801498413086,1.000596391382265,108.24053955078125,0.9998695845269684,128.23512268066406,1.0,67467.0,-0.0011732754011794244,0.0017917959270771352,0.002224568756551422,0.0009225752956186741,0.0021456900215972375,103.0,0.9659140110015869,0.7691414568109841,0.3831947470615264,0.8732348791757808,0.35469743609428406,0.07328406311075446,0.24829916848236916,0.6632411777113467,0.0068646464501879376
54,1.7667628379604428,155.64808654785156,1.0064150771734035,120.82949829101562,1.0001771185859656,108.32353210449219,1.0006362264020199,128.27191162109375,1.0,67787.0,0.0011872316901554714,0.0029254544678347883,0.0032840730093370535,0.0015316446961277652,0.0031692676842860028,103.0,0.9652422666549683,0.7704623797089903,0.3882307817133079,0.8773766842261943,0.356249064207077,0.0697505856771204,0.2482776933630342,0.6638984875698077,0.005392242985380859
55,1.800097985846489,155.69839477539062,1.0067403684109903,120.7522201538086,0.999537441804264,108.30724334716797,1.000485759367341,128.2783203125,1.0,67457.0,0.0033621015557680767,0.003613376181727651,0.0038129291848809917,0.001926425927340175,0.0036995864863153894,103.0,0.9647812843322754,0.7688552213508854,0.3847488029411329,0.8731054477679554,0.35743260383605957,0.07496667141248495,0.24836562550958388,0.6626448230291652,0.002429027705791908
56,1.833433133732535,155.80380249023438,1.0074219310040295,120.7708511352539,0.999691661441041,108.2443618774414,0.9999048931847548,128.00657653808594,1.0,67457.0,0.0026538792996082805,0.0037814727080102977,0.003795864773387869,0.002073260611810353,0.0037128770994867685,103.0,0.964043378829956,0.7689194598040233,0.3868686718946885,0.8731054477679554,0.35936781764030457,0.07645513260247731,0.24674978134218836,0.6619118717203349,0.0003826930424651008
57,1.866768281618581,156.01539611816406,1.0087900879926912,120.9809341430664,1.001430642570564,108.2691650390625,1.000134011840371,127.62655639648438,1.0,66921.0,-0.000840453731787788,0.0035072498993313768,0.0033803525184322152,0.001980785572201783,0.0033300627320581883,103.0,0.9648771286010742,0.7670785951594666,0.3833774151611602,0.866123082896525,0.36124053597450256,0.08591212062382708,0.24337651858161116,0.6595643655986718,-0.0006456773179554544
58,1.9001034295046273,156.02740478515625,1.0088677356129463,120.96593475341797,1.0013064837638874,108.31973266601562,1.000601129173322,127.35098266601562,1.0,67462.0,0.0004974271840093858,0.002957620662360619,0.0027851125966595635,0.001694055674590675,0.002743501149734066,103.0,0.9635353684425354,0.7664018262132757,0.38461652485843884,0.873124959554779,0.36256828904151917,0.07660648417782955,0.24317393495597522,0.6605419568760313,-0.002776649939732527
59,1.9334385773906733,155.92271423339844,1.0081908101713073,120.940185546875,1.0010933423739927,108.30590057373047,1.00047335552748,127.20374298095703,1.0,67325.0,0.00014300049362556133,0.002303444328881998,0.002193813408518068,0.0012797693543592323,0.0021272162461735363,103.0,0.9635446667671204,0.7652927342492882,0.38459710360193095,0.8713518410664596,0.3643645942211151,0.07831489031256067,0.24516895655402896,0.6604481224024338,-0.010209655353198102
60,1.9667737252767195,155.88180541992188,1.0079262952159023,120.89673614501953,1.0007336860138594,108.28897094726562,1.0003169684783222,126.85855102539062,1.0,67844.0,0.0007020023536335185,0.0016596034460089463,0.001689291930448531,0.0008116035617409592,0.0015786432623995982,103.0,0.9627981781959534,0.7629070612974864,0.3849124462001061,0.8780689833689251,0.36583900451660156,0.07123535883000065,0.24460527091562997,0.6608043535788115,-0.014085207808559052
61,2.0001088731627656,156.72772216796875,1.0133959632866762,121.51080322265625,1.0058166818800671,108.84841918945312,1.0054848592131786,127.49127197265625,1.0,66957.0,0.00032325886594239406,0.001075237758516922,0.0012555006229068091,0.0003529454751959943,0.001109509053039298,103.0,0.9604170918464661,0.7691304369470954,0.390205654375196,0.8725403320388856,0.36844247579574585,0.0784748103938075,0.27069611840434904,0.6655136143688961,-0.010268464250281927
62,2.0334440210488114,156.7410888671875,1.0134823918957532,121.59166717529297,1.006486040573843,108.8929214477539,1.0058959478376661,127.24320983886719,1.0,67018.0,-0.0009663688109945445,0.0005624808635116631,0.0008333540433526978,-5.392069677786141e-05,0.0006837559925990178,103.0,0.9621263146400452,0.7682015776855969,0.39137246709839146,0.873335244598504,0.36948713660240173,0.07430477729416977,0.27252379957623324,0.6667878897453102,-0.015243251518367418
63,2.0667791689348576,156.9565887451172,1.0148758065601267,122.0370864868164,1.0101730392774964,109.4392318725586,1.0109424782757,127.18779754638672,1.0,67281.0,-0.0020048378881286077,0.00013051503453734205,0.00038760917068219014,-0.00039290039730356923,0.00026898375381124176,103.0,0.9649267196655273,0.7687707772872976,0.39177479526166376,0.8774943266296268,0.3695506751537323,0.07041500378224691,0.26462151275991735,0.6666437373206653,-0.011702495257520542
64,2.1001143168209038,156.90481567382812,1.0145410436941478,122.04915618896484,1.0102729473304781,109.50433349609375,1.0115438530798748,126.94638061523438,1.0,67712.0,-0.0016385795496507427,-0.00020343190844574366,-5.915207579150276e-05,-0.0006713202391449452,-0.00013049305278592954,103.0,0.9633162617683411,0.7693761814744802,0.3972707939508507,0.8831155280799228,0.3693983554840088,0.06682839032788168,0.26510810491493386,0.6670333802675071,-0.01457676051638594
65,2.13344946470695,157.3755645751953,1.017584889605823,122.5946044921875,1.0147879450749933,110.098876953125,1.0170359350838283,127.19123840332031,1.0,67654.0,-0.0025380349155298965,-0.00043162059431577397,-0.000444152125312661,-0.0009113054868958963,-0.00047864369596619527,103.0,0.9568578004837036,0.7697746376168938,0.39610370414166196,0.8806591861706282,0.3705030381679535,0.07020124443518784,0.2567771306944157,0.6632926046735578,-0.011500242483965351
66,2.1667846125929957,157.37875366210938,1.0176055101301347,122.61482238769531,1.0149553005366885,109.99913024902344,1.0161145271159646,126.95765686035156,1.0,68113.0,-0.004695479610631437,-0.0005837302301138443,-0.0007176303520394753,-0.0011371214409152078,-0.0007434572773546822,103.0,0.9542155861854553,0.769544727144598,0.4007164564767372,0.886634037124782,0.36901429295539856,0.06457785530186665,0.25633873122605083,0.6633981313721949,-0.014586725960124357
67,2.200119760479042,157.8583984375,1.020706876451732,123.03880310058594,1.0184648392979405,110.5815200805664,1.0214943402739025,127.04971313476562,1.0,68402.0,-0.002512263581168128,-0.0007371157570654487,-0.0008924565721937457,-0.0013620274694243514,-0.000935139357394068,103.0,0.9395824670791626,0.7728916308490006,0.4037893628841262,0.8864381520119226,0.3689083158969879,0.06132313872869825,0.25138153855150436,0.6599385484533,-0.010733572598732418
68,2.233454908365088,157.88778686523438,1.020896900996346,123.22006225585938,1.0199652283767902,110.7597885131836,1.0231410909681893,126.73839569091797,1.0,68685.0,-0.004114688762955954,-0.0009909136530656469,-0.0010528581730121058,-0.001580935118090016,-0.0011194796750642719,103.0,0.936016321182251,0.7710756836766883,0.40656620805124843,0.8901056178319187,0.3700430393218994,0.06200997861724875,0.2502293077091068,0.658343481993962,-0.01639767025844663
69,2.2667900562511343,158.50270080566406,1.024872913002265,123.65277099609375,1.023547014175091,111.25938415527344,1.0277560946365099,126.97140502929688,1.0,68245.0,-0.0024838856708876977,-0.0014100605006137732,-0.0013104445495379896,-0.0017651387301958988,-0.0013857128945646102,103.0,0.917801558971405,0.7755391115344225,0.4106234889002857,0.8815588911566383,0.36963731050491333,0.06947063838582168,0.2446919188218917,0.6523812936723826,-0.01084885232650945
70,2.3001252041371805,158.50868225097656,1.0249115888181988,123.80752563476562,1.024828009716609,111.3994369506836,1.029049829229295,126.6006851196289,1.0,69149.0,-0.004201106610164929,-0.0019697602834154787,-0.0017293107211861472,-0.0018693595392330394,-0.0017885056898403954,103.0,0.9150275588035583,0.7740145675762965,0.4148722324256316,0.8932363655152815,0.3700447678565979,0.059394941483452604,0.2442696206741963,0.6529105367136357,-0.014800084044803902
71,2.333460352023226,159.6519012451172,1.0323036028013608,124.63571166992188,1.0316833946516741,112.0259017944336,1.0348367843354012,127.63072967529297,1.0,68496.0,-0.006821736045731941,-0.0025372941983118685,-0.0022634529299786327,-0.001840581527288357,-0.0022889640143932475,103.0,0.9578724503517151,0.7791695865451996,0.4193675543097407,0.8861748648019251,0.36802104115486145,0.06301912179470592,0.34772833450128476,0.6847646373100728,-0.004873423539060069
72,2.3667954999092724,159.4364776611328,1.030910681450966,124.5974349975586,1.031366556028533,111.96687316894531,1.0342915087160527,127.80525970458984,1.0,68487.0,-0.008456306720623807,-0.0029092709498729644,-0.0027462274076666443,-0.0016338201110244284,-0.0027389943865663217,103.0,0.9613996148109436,0.7795299351215071,0.4233066129338415,0.8860584262685332,0.36527520418167114,0.06005640800062101,0.34625549374333814,0.6858979641956057,-0.008920602644381378
73,2.4001306477953186,159.78065490722656,1.033136119471897,124.93753051757812,1.0341817275062617,112.55154418945312,1.039692394306482,128.12478637695312,1.0,68405.0,-0.005069020924116374,-0.0028903827174893335,-0.0029453172276754174,-0.0012255018137842233,-0.002921328826868791,103.0,0.958368718624115,0.781122237653193,0.42531978656530955,0.8810762770808109,0.36403438448905945,0.06706767304670393,0.3342007163219063,0.681925942763576,-0.003638029357647293
74,2.433465795681365,159.62576293945312,1.0321345934322415,125.016845703125,1.0348382661401416,112.5542221069336,1.0397171315098412,127.87911224365234,1.0,68813.0,-0.008321068365355733,-0.0023767418384711574,-0.0026626093757081003,-0.0006264050876419127,-0.0026418239866769426,103.0,0.9557201266288757,0.7799107726737681,0.43004955458997574,0.886331435637188,0.36161860823631287,0.06288157860841341,0.33298940607152716,0.6814490148289318,-0.007871248217451924
75,2.4668009435674105,160.04087829589844,1.0348187147906132,125.22888946533203,1.0365934775917987,112.91165161132812,1.043018878632868,128.25595092773438,1.0,68407.0,-0.004763511952332655,-0.0014065775147873215,-0.0018344856344959248,0.00011781302546626346,-0.001826305586258903,103.0,0.9446150660514832,0.7853143684125894,0.4342538044352186,0.8805689644075433,0.3604315519332886,0.06604878676707215,0.3226570380224246,0.6771802419171421,-0.0022233576664238697
76,2.5001360914534567,160.013427734375,1.0346412204210595,125.28577423095703,1.0370643463927036,112.93456268310547,1.043230519150498,128.0753173828125,1.0,68723.0,-0.006094369483051115,-0.00015907647434718246,-0.000585431295707129,0.0009263852138260866,-0.0005865162997582259,103.0,0.9415249228477478,0.7862384742614069,0.44087132401088425,0.8846366737465405,0.35906368494033813,0.06383471712685847,0.3212752644675,0.676670423717421,-0.0033401887714178038
77,2.533471239339503,160.33824157714844,1.0367414553541843,125.40666198730469,1.0380650057476313,113.18798828125,1.0455715324951922,128.42466735839844,1.0,67812.0,-0.002552669026152782,0.0010952194967705946,0.0007931388951485137,0.0016999452937332092,0.0007958089687277144,103.0,0.9310116171836853,0.7893784777522169,0.44328437444700053,0.8757958904286508,0.3593719005584717,0.07049038473956787,0.3145903379932755,0.672268205886689,-0.0011668575313579718
78,2.566806387225549,160.21067810058594,1.0359166343817163,125.48486328125,1.0387123240428668,113.29689025878906,1.0465775120984724,128.22640991210938,1.0,68046.0,-0.00379974388309004,0.0020726109891843134,0.001935291660778065,0.002333610318346313,0.0019538223124226767,103.0,0.9285709261894226,0.7886037876338555,0.44705052464509304,0.8788180139224322,0.35741981863975525,0.06761032688010953,0.3124357052582077,0.6715329778249508,-0.001584399121823234
79,2.6001415351115953,160.02645874023438,1.0347254784486297,125.50365447998047,1.0388678698927367,113.19731903076172,1.045657725086954,128.2024383544922,1.0,67970.0,-0.007374852406582283,0.0025575320878808033,0.0025300509664989562,0.002737955923070904,0.0025696498322520427,103.0,0.9279078841209412,0.7875974694718257,0.44705016919229074,0.8778364695398365,0.35642173886299133,0.06996086737527284,0.3124760923937031,0.6707979446232974,-0.0034133017090085694
80,2.633476682997641,160.3934783935547,1.0370986146747982,125.55428314208984,1.0392869532300228,113.47323608398438,1.0482065027493217,128.41551208496094,1.0,68114.0,-0.0012717714500685429,0.002464822984322519,0.0024368023130405783,0.002855784605102604,0.0024958997441666443,103.0,0.9173623323440552,0.7910904268334459,0.45018645212437974,0.8765603685687077,0.3564318120479584,0.06902941857771601,0.30857092521361246,0.6682281465229909,0.0015666272991243131
81,2.6668118308836872,160.74652099609375,1.03938137578006,125.7402114868164,1.0408259919475733,113.52161407470703,1.0486533933661355,128.68463134765625,1.0,68234.0,-0.002634817549913099,0.0018665278047023909,0.001738937695103988,0.0026702182415572584,0.001811509808139392,103.0,0.9611488580703735,0.7892253128938652,0.4508016531348008,0.8781046508635112,0.3580440282821655,0.07608164105731861,0.3618137585367998,0.6883219662345554,0.0008548327465894706
82,2.7001469787697334,160.60806274414062,1.0384861095714268,125.77409362792969,1.0411064544401725,113.24593353271484,1.0461068004710163,128.3400115966797,1.0,68462.0,-0.00917587700642844,0.0009715696577513885,0.0007111327520181997,0.002209905483758959,0.000789736028064838,103.0,0.964583694934845,0.7919916644756703,0.4567643364202039,0.8810387872236378,0.35545212030410767,0.0692353228836898,0.361981829335982,0.6908629708346513,0.0008485405367458579
83,2.7334821266557796,160.393310546875,1.037097529384045,125.7187728881836,1.0406485320051722,113.50779724121094,1.0485257606730194,128.73040771484375,1.0,68366.0,-0.005028749694868301,5.703959056414221e-05,-0.0002893050056368727,0.0015432173829914206,-0.00021215298760292258,103.0,0.9672881960868835,0.7913387746345649,0.45111605183863324,0.8745027309822582,0.35466912388801575,0.07696637118334036,0.35226574613111783,0.6882283337855231,0.002450209283546778
84,2.7668172745418254,160.3936004638672,1.0370994039771642,125.65206146240234,1.040096322134583,113.17771911621094,1.0454766713108,128.26754760742188,1.0,68594.0,-0.008730249873487833,-0.0006300143969042745,-0.0009630651593091233,0.0007624408524596883,-0.0008954912294806351,103.0,0.9673745036125183,0.7933687105772128,0.4577076712248885,0.8774191897872776,0.3535429537296295,0.07422899318213796,0.35049712802869054,0.6887401547151683,0.0023450502937654785
85,2.8001524224278715,160.2188262939453,1.0359693203146467,125.60759735107422,1.0397282664248626,113.0511474609375,1.0443074684511655,127.9346923828125,1.0,68289.0,-0.011005629166264547,-0.0009619350957580905,-0.001181170345526601,-2.8880637991963202e-05,-0.0011271471171180516,103.0,0.9663223624229431,0.7931780130523706,0.4610552211922857,0.8735177865612648,0.3524329364299774,0.08171201248449032,0.35168182284116034,0.6874786357869235,0.00338042051892673
86,2.8334875703139177,160.33274841308594,1.0367059367477143,125.72711181640625,1.0407175582389958,113.32762908935547,1.0468614613643836,128.10577392578125,1.0,69218.0,-0.008686032215167755,-0.0009696661236601272,-0.0010194822682672979,-0.0007366216042993157,-0.0009746532539082262,103.0,0.9612395167350769,0.7943935585156078,0.46040047386517957,0.8815558215950483,0.3516836166381836,0.07030235105326167,0.34177526077031983,0.6862952668724329,0.004399050346039886
87,2.866822718199964,160.08270263671875,1.0350891495137633,125.59791564941406,1.0396481252622622,113.20953369140625,1.0457705577438725,128.06967163085938,1.0,69137.0,-0.009163695313249315,-0.0008101237435148256,-0.0007007708983099584,-0.0012903336409952864,-0.0006500065462958543,103.0,0.9604328274726868,0.7935885753407486,0.4626466291566021,0.8805242110089406,0.351479172706604,0.07218726916121145,0.3407148126184243,0.6854189213942123,-0.0006810521970577119
88,2.90015786608601,159.86593627929688,1.0336875458373425,125.4500732421875,1.0384243463427425,113.0480728149414,1.044279066476938,127.87828826904297,1.0,69262.0,-0.009608508061536708,-0.000674875824458947,-0.0004733074346196487,-0.0016515988842703852,-0.0003962051902046007,103.0,0.9581502079963684,0.7925076761668254,0.4663884958563137,0.8821162026541685,0.35189288854599,0.07195802236429863,0.33927694839883343,0.6843811933339361,-0.005859499245350602
89,2.933493013972056,160.18197631835938,1.035731049662911,125.71803283691406,1.040642406163744,113.51187133789062,1.0485633950507798,128.61962890625,1.0,69040.0,-0.006536725596649973,-0.0006860941878889799,-0.0004857659855087157,-0.0018167680270548296,-0.0003692495712884273,103.0,0.9443756937980652,0.7967072228659714,0.46632387022016225,0.8738798035542504,0.35015276074409485,0.07771758391980153,0.3294611819235226,0.6788927909802469,-0.0012115064554787756
90,2.966828161858102,159.9530487060547,1.0342508117382778,125.85920715332031,1.0418109893574066,113.66987609863281,1.0500229605253444,128.32257080078125,1.0,70724.0,-0.009424537997979321,-0.000836091795009141,-0.0007197493550059681,-0.0018134416407182973,-0.0005706825180675387,103.0,0.9392013549804688,0.7914427916973023,0.4661642441038403,0.8951951799908865,0.34951746463775635,0.05828818793985115,0.3293365759855212,0.6796301022113057,-0.007697909396570061
91,3.0001633097441482,161.243408203125,1.0425942310608545,126.81302642822266,1.0497063148161445,114.36863708496094,1.0564777496457902,129.4900360107422,1.0,69628.0,-0.013025797554809038,-0.0010041360514292973,-0.0010113886195152332,-0.0016892727551414725,-0.000858140769321386,103.0,0.9621133804321289,0.8004346910246835,0.4743206755902798,0.8796189850550172,0.34589287638664246,0.061017976931920105,0.29108979146320446,0.6790703652965026,0.004839250430335878
92,3.0334984576301944,161.3028106689453,1.0429783253247082,126.8908920288086,1.050350854379186,114.57173919677734,1.0583539009011445,129.1864776611328,1.0,69798.0,-0.011245803440656899,-0.0010386728621338442,-0.001147179410063495,-0.0015002896725123554,-0.001027253599642096,103.0,0.9660954475402832,0.801498610275366,0.479025186968108,0.8811988688011312,0.34445691108703613,0.05972881527118473,0.27979311728129747,0.678225596953014,0.00411172579092443
93,3.06683360551624,161.2187042236328,1.0424344959945357,126.82630920410156,1.0498162641968278,114.62757110595703,1.0588696469244598,129.19300842285156,1.0,69152.0,-0.009256059676871153,-0.0008531406731164349,-0.0009813674318245981,-0.0012982430613886443,-0.000920070516016772,103.0,0.9624948501586914,0.8021990205151935,0.48112852845904674,0.8730321049375702,0.34512877464294434,0.07178477193248242,0.2697535863026377,0.6735286703940419,0.003964658873451737
94,3.1001687534022864,161.06785583496094,1.0414591155957538,126.72725677490234,1.048996348740531,114.46056365966797,1.0573269193417356,128.791015625,1.0,69634.0,-0.010571400205626691,-0.00047735189276633546,-0.0005133740288153045,-0.0011198268446942885,-0.0005078441458571141,103.0,0.9602111577987671,0.8032139472096964,0.49090961312002757,0.8791172720271686,0.34474340081214905,0.06575010415483089,0.26900651980354423,0.673976866187567,1.9113125000372322e-05
95,3.1335039012883326,161.23426818847656,1.0425351320462004,126.8362045288086,1.0498981736435518,114.6128921508789,1.058734050402342,128.99777221679688,1.0,69539.0,-0.009624022248644448,-3.7467570641821555e-05,0.00011236524712666994,-0.0009801400927920982,9.205093797823806e-05,103.0,0.9496827125549316,0.8067559211377788,0.49326277340772806,0.876468364003025,0.344882607460022,0.0664608016133098,0.2634492874502078,0.6708279915982007,0.0015995260581189233
96,3.1668390491743788,161.16134643554688,1.0420636225453124,126.60946655273438,1.048021329505395,114.47724914550781,1.0574810511472823,128.872314453125,1.0,69541.0,-0.006432737986315662,0.0003179516605128885,0.0006800900094838599,-0.0008716322029697675,0.0006724809465280491,103.0,0.9486845135688782,0.80667999213893,0.4962971484448023,0.8764935719687421,0.34438225626945496,0.06804890345349131,0.26260767029522153,0.6701408363264912,0.0013108419733425629
97,3.200174197060425,161.0747833251953,1.0415039085050242,126.54338836669922,1.047474361334172,114.16931915283203,1.054636554666408,128.61656188964844,1.0,69342.0,-0.01045929901812892,0.000499427093860079,0.0010095227642372081,-0.0007685398338134573,0.0010364010547377182,103.0,0.9472013711929321,0.8074327247555594,0.49678405583917395,0.8739853793798841,0.34438255429267883,0.07253592135114696,0.2623374001326757,0.6691486203596966,0.0005421746180696504
98,3.2335093449464707,160.92828369140625,1.040556647003031,126.2868423461914,1.0453507784077727,113.89755249023438,1.0521261161454294,128.43411254882812,1.0,69692.0,-0.009310600657797374,0.0005202032202939145,0.0010421440347040886,-0.0006322448077441107,0.0010958154374599639,103.0,0.948697030544281,0.8072901719948726,0.4988664409114389,0.8783967733803882,0.34441471099853516,0.06604487017897656,0.26344487172128794,0.6707540871506661,0.001921867400880243
99,3.266844492832517,160.78799438476562,1.0396495412589077,126.16854095458984,1.044371527921341,113.7085189819336,1.0503799233031652,128.4256591796875,1.0,69511.0,-0.010399802256509383,0.0004831811161478509,0.0008671348269646088,-0.0004246673809363072,0.000915175567918984,103.0,0.9485945701599121,0.8073877995329276,0.4980506682395592,0.8761154524829846,0.34408947825431824,0.06830098311066297,0.26414524319891813,0.6705270937886412,0.002561051358967628
100,3.300179640718563,160.69415283203125,1.039042765065047,125.99024963378906,1.0428957053612082,113.56877899169922,1.0490890782412567,128.2963104248047,1.0,69660.0,-0.008721639498985578,0.0005252702101095904,0.0006781030636015927,-0.00011554202018135957,0.0006865421878129961,103.0,0.9475160837173462,0.8077280122499761,0.49649727246626474,0.8779934459289135,0.34446853399276733,0.06712881270481472,0.2630778064886592,0.6702995746442934,0.004705820825021665
101,3.3335147886046093,160.97634887695312,1.0408674348096425,126.00377655029297,1.0430076756380329,113.52656555175781,1.0486991325256234,128.53187561035156,1.0,69225.0,-0.007576069949168263,0.0007516560125707423,0.0006829304580938929,0.00030653249901082337,0.0006378393058801261,103.0,0.9635210037231445,0.806803900325027,0.49678584326471653,0.8725107133854298,0.34544453024864197,0.0734182001512478,0.37727699530516434,0.6959495180326247,0.006145138121669544
102,3.366849936490655,160.93267822265625,1.0405850618882069,125.82926177978516,1.0415631138150847,113.20884704589844,1.0457642148712163,128.31417846679688,1.0,69739.0,-0.008561080882721173,0.0011891099439335666,0.0010070367356849828,0.000829122742666908,0.0009223777747640104,103.0,0.9627826809883118,0.8074391660333529,0.4990464446005822,0.8789891605747416,0.34533748030662537,0.06639778169901689,0.37648948221224854,0.6968577548243555,0.006853751470217488
103,3.400185084376701,160.5735626220703,1.0382630329902367,125.6324691772461,1.0399341452192497,113.14387512207031,1.0451640381652099,128.57334899902344,1.0,69724.0,-0.007216659486975946,0.0017720892584102326,0.0016303395856511345,0.001414535338308411,0.0015365615736892995,103.0,0.963114857673645,0.8074694509781425,0.49837932419253056,0.8788001008318629,0.34471315145492554,0.06508696748172423,0.37787562388847457,0.6974338145946588,0.0035399753098993535
104,3.4335202322627474,160.6807861328125,1.0389563364559702,125.72756958007812,1.0407213474192607,113.23381805419922,1.045994884006815,128.28076171875,1.0,70205.0,-0.007398651057260869,0.0023612484040825762,0.002383261129603645,0.0020015854183269765,0.0023043525629285436,103.0,0.9647672176361084,0.8092870878142583,0.5010326899793462,0.8831928544471003,0.34387534856796265,0.06288841363693547,0.3668114806637704,0.6963493719227232,0.005556176095010062
105,3.4668553801487936,160.2948760986328,1.0364610556886633,125.50169372558594,1.0388516395706024,113.19318389892578,1.045619526898291,128.52345275878906,1.0,70129.0,-0.005089030496176622,0.0027858397145942,0.003004110476888236,0.002514411481813916,0.0029415107324034097,103.0,0.9643097519874573,0.8066990831182536,0.5019036347302828,0.8822367593407976,0.34343406558036804,0.06519059001132217,0.3673801137903007,0.6954627829767636,0.0015554781350442422
106,3.5001905280348398,160.64987182617188,1.038756445631781,125.89051055908203,1.0420701061345141,113.56539916992188,1.0490578572125153,128.21121215820312,1.0,71448.0,-0.006432955227594767,0.002896926846858006,0.003236792425763982,0.002871217533633397,0.0031687822002083154,103.0,0.9553003311157227,0.8092972044937111,0.5038629492777964,0.8917067082683308,0.34350284934043884,0.053778471138845554,0.34912103907737096,0.6919041761109318,0.0020420536759554846
107,3.5335256759208855,160.71255493164062,1.0391617523967212,126.10497283935547,1.04384533708857,113.91924285888672,1.0523264804450039,128.576171875,1.0,71210.0,-0.005741412999311329,0.0026157297627641437,0.0029315459453832246,0.0029989629034677923,0.0028317460795248446,103.0,0.9453478455543518,0.8113139540326734,0.509254318213734,0.8899136455091916,0.3425980508327484,0.05492445544183257,0.3396011796096054,0.6877320752463506,0.0014906814048909652
108,3.5668608238069317,160.94097900390625,1.0406387344490946,126.44023895263672,1.046620532714505,114.23651123046875,1.055257239994003,128.64227294921875,1.0,71388.0,-0.00756469297920756,0.001962022558668431,0.0021082193245569153,0.002843997866703407,0.0019665149082565047,103.0,0.9306253790855408,0.8126762667862012,0.5145262509105172,0.89170351495166,0.34359583258628845,0.052374528466861525,0.3294531293774864,0.6827022994494248,-0.0011202779048040921
109,3.600195971692978,161.28172302246094,1.0428419733409822,126.73583984375,1.0490673958704957,114.73472595214844,1.0598594874406482,128.6253204345703,1.0,70784.0,-0.004461164747803031,0.001051829460508858,0.0009537465261546249,0.0023856624657223897,0.0007887262897337812,103.0,0.9118165969848633,0.8151606766124172,0.5230278028933092,0.8875402806164031,0.34291908144950867,0.05909495567564856,0.31973327305605787,0.6754777462718071,0.0010176647451577113
110,3.633531119579024,161.50840759277344,1.0443077078346403,127.0650634765625,1.0517925743169356,114.99711608886719,1.0622833105116878,129.0340576171875,1.0,71592.0,-0.007048767108805948,6.0790341907904636e-05,-0.00024976355194087225,0.0016406052751767946,-0.00040054340636424087,103.0,0.8936640024185181,0.815277312176407,0.5251285059783216,0.8955716787590693,0.34086328744888306,0.05060045033775332,0.31302380154207177,0.6709801512942848,-0.0012824693653875896
111,3.66686626746507,162.84963989257812,1.0529800689182467,128.09671020507812,1.0603321235736929,115.93000793457031,1.0709008782551872,129.95303344726562,1.0,71168.0,-0.00842868745655903,-0.0008396948251988522,-0.001240386543013809,0.0006674985888063486,-0.001341879012541217,103.0,0.9633169770240784,0.8188043315347722,0.527048673561151,0.8870497320204412,0.3375874161720276,0.05616352985167643,0.3068654451438849,0.6869770348154827,0.010774230106625163
112,3.700201415351116,162.71583557128906,1.0521148948623174,128.15647888183594,1.060826864210266,115.96722412109375,1.0712446619531557,130.06741333007812,1.0,71616.0,-0.010426084132613894,-0.0015514595041324563,-0.001886472840628758,-0.0004400167726668859,-0.0019294562587120507,103.0,0.9666034579277039,0.8228561587727138,0.5366538203753352,0.8934800509020137,0.33460733294487,0.051139057314669265,0.2958975647899911,0.6872193600241199,0.010040511566159913
113,3.733536563237162,162.925537109375,1.053470817664306,128.259033203125,1.0616757668955887,116.16507720947266,1.073072325470871,130.03643798828125,1.0,71562.0,-0.008217119829794256,-0.0020896506482508876,-0.002238796328574343,-0.0015618837447656051,-0.0022452456988629682,103.0,0.9557976126670837,0.826532703576386,0.5458483552723512,0.8915938851027247,0.333374947309494,0.05706240733588328,0.28696794388083063,0.6825195474844729,0.01084220240122339
114,3.7668717111232084,163.10508728027344,1.0546317827818932,128.32034301757812,1.0621832644390534,116.1791000366211,1.073201861025784,130.01275634765625,1.0,71377.0,-0.008201809537932342,-0.002564894529703145,-0.002493509366970018,-0.0025690720117109867,-0.002503297907996781,103.0,0.9437036514282227,0.8288337513017732,0.5521806744469507,0.8901762218924211,0.3322979211807251,0.05496177493982515,0.28007621502724966,0.6789140221324883,0.012769593138246143
115,3.8002068590092546,162.67510986328125,1.051851563860461,128.17404174804688,1.0609722424264254,116.0400161743164,1.0719170769310804,129.72756958007812,1.0,71296.0,-0.009975184880919447,-0.003106011419619599,-0.0028758189104767114,-0.00334105085951868,-0.0029214905308046824,103.0,0.9381227493286133,0.8267410981448234,0.5551503590664273,0.8891660327001983,0.3332395553588867,0.061895913098786524,0.27979129263913827,0.6759338193931399,0.008000815094995894
116,3.8335420068953003,163.16961669921875,1.0550490277451188,128.2540283203125,1.0616343385246938,116.13921356201172,1.0728334106008193,129.8533935546875,1.0,70382.0,-0.0065898576917081675,-0.0037578304164419146,-0.0034966585870319315,-0.003783693999451114,-0.0035826966310261578,103.0,0.9228449463844299,0.8344368351756605,0.5654002443806655,0.8756920856506538,0.3321171700954437,0.07084468664850137,0.27117728964792137,0.6704989116970637,0.01544872260780291
117,3.8668771547813465,162.96046447753906,1.053696656803777,128.1759796142578,1.0609882832895463,115.97400665283203,1.0713073154397268,129.9202117919922,1.0,70366.0,-0.008884965520706,-0.004410113655840145,-0.004255294807950564,-0.0038459101322432052,-0.004356611255254453,103.0,0.9213156700134277,0.834801845588305,0.566054628655885,0.87549301382305,0.3318794071674347,0.07398006793326117,0.27103999090469827,0.6696604739326358,0.017991612039743907
118,3.9002123026673927,162.55999755859375,1.0511072517293252,127.79020690917969,1.0577950147743957,115.53397369384766,1.067242520736154,129.90541076660156,1.0,70334.0,-0.009084467657135553,-0.00480520085947393,-0.004845605944688089,-0.003525338382366621,-0.004922626329463347,103.0,0.9217990636825562,0.8343901953535986,0.5659282850399522,0.8750948701678425,0.33113420009613037,0.07207644358179986,0.2707225523928683,0.6699400844968444,0.015789693166798076
119,3.933547450553439,162.3629150390625,1.0498329230594214,127.55172729492188,1.0558209781624468,115.26240539550781,1.0647339146006092,129.92747497558594,1.0,70358.0,-0.008804295657872607,-0.004635036297154704,-0.004876389754167631,-0.0028710769312148996,-0.004900180213085353,103.0,0.923348605632782,0.834304556695756,0.5643281503169505,0.8753934779092482,0.3301461637020111,0.06998618939195998,0.27070127064441857,0.6706405265735169,0.0197454710585712
120,3.9668825984394847,161.99441528320312,1.0474502165420652,127.2416000366211,1.0532538716860533,115.02672576904297,1.0625568292758976,130.3914031982422,1.0,70753.0,-0.007365988599329243,-0.0036901890582191075,-0.004058013584124195,-0.001973818579626942,-0.004026463626153698,103.0,0.9270525574684143,0.8341177523685687,0.5599338543948666,0.8803080636532169,0.3292873799800873,0.06151319472957337,0.272285274122652,0.673201633508616,0.022063016507638835
121,4.000217746325531,161.9147186279297,1.0469349007598643,126.99241638183594,1.0511912314089127,114.79183959960938,1.0603870734929222,130.8641357421875,1.0,71351.0,-0.005280284964253534,-0.0019904497530070465,-0.002368604049023445,-0.0009510049403379439,-0.0023063692591715713,103.0,0.9641162157058716,0.826365432860086,0.546957996384073,0.8877483732099088,0.3296035826206207,0.05694698468391127,0.30682120783170524,0.6885548645154004,0.03061641239020575
122,4.033552894211577,161.50596618652344,1.0442919217873203,126.4925308227539,1.0470533834067535,114.42887878417969,1.0570342310068312,130.400634765625,1.0,72715.0,-0.0012447520732883355,0.00017167710591550493,-0.00011488880674129298,7.347598133207988e-05,-5.633612729170682e-05,103.0,0.9580807685852051,0.8164065186000138,0.530674551330537,0.9031236415574737,0.3355461657047272,0.04922064211637583,0.2987004056934608,0.684666274266376,0.030220841987855653
123,4.066888042097623,160.93760681152344,1.040616929971234,125.7838134765625,1.041186911367795,113.62559509277344,1.0496139157153794,129.65809631347656,1.0,73008.0,-0.00023095032357350886,0.0023061014453122793,0.002152261026896547,0.0009883834045758915,0.0021840354535046036,103.0,0.9444097876548767,0.8155818540433925,0.5259971509971509,0.9095869930854046,0.3381381630897522,0.04730579953902697,0.2779695375849222,0.6772437973131378,0.030740364447306014
124,4.100223189983669,160.08888244628906,1.0351291079460418,124.84254455566406,1.0333954726013168,112.73550415039062,1.0413917203674528,129.19566345214844,1.0,73169.0,0.0033159983484450928,0.003895686338134548,0.003839777531981321,0.0017128344455966233,0.003845977015622518,103.0,0.9227035641670227,0.8141061560679158,0.5182112643332559,0.9098924330037929,0.33883026242256165,0.04349934713672822,0.2535636676734683,0.667249960248156,0.02623050024084693
125,4.133558337869715,159.28146362304688,1.0299083661089443,123.74879455566406,1.0243418578886359,111.61790466308594,1.0310679198794235,128.58261108398438,1.0,72923.0,0.007444819965423732,0.004592234292288434,0.004546091884582052,0.002204666380131209,0.004548404561956291,103.0,0.8977466821670532,0.8142058518345835,0.5143644666291842,0.9029370248384141,0.34000661969184875,0.05063024689829375,0.2284327304142726,0.6548635474878075,0.02738894927469509
126,4.166893485755762,158.52798461914062,1.0250363972548222,123.0255126953125,1.0183548267642526,110.63432312011719,1.0219821071811677,127.9670639038086,1.0,73086.0,0.004411490757006975,0.004351179679228659,0.004221778243097602,0.002461002840805078,0.004245594880950021,103.0,0.8741647005081177,0.8116739183975042,0.5056508770489561,0.9079570159637245,0.34109407663345337,0.04336915336356295,0.21283145882932436,0.6465031860342251,0.02412459994118219
127,4.2002286336418075,158.11732482910156,1.0223810854328095,122.26594543457031,1.01206743995088,109.49813842773438,1.011486626273243,127.08839416503906,1.0,72306.0,0.0024737816554581404,0.003442156121188052,0.0031830440148636644,0.0025118483270118205,0.003239947797954868,103.0,0.8550742864608765,0.8109700439797528,0.5008712969878019,0.8999103898043511,0.34070727229118347,0.049907900632249716,0.1973695129034935,0.6374512188907084,0.02414756377469654
128,4.233563781527853,157.69039916992188,1.0196205990705274,121.6418228149414,1.0069012084248556,108.78396606445312,1.0048894748998458,126.00142669677734,1.0,72714.0,0.003827853462636255,0.002329247140845473,0.0019708394099566136,0.002405458085600746,0.002050848282374282,103.0,0.8370609283447266,0.8090693218178985,0.4957229694419232,0.9027076013953893,0.3414314389228821,0.044046628843838066,0.18102428693236516,0.6302364932212203,0.02413765947466333
129,4.2668989294139,156.54171752929688,1.012193263806487,120.7365951538086,0.9994081044512256,107.97021484375,0.9973724660385678,126.45829010009766,1.0,73778.0,0.005353558118940727,0.001475586134299249,0.0011190364932132607,0.0021936860045775053,0.0011991736835840594,103.0,0.7995672821998596,0.9547290520209276,0.9072216649949849,0.918390718749222,0.34657523036003113,0.05102447282595165,0.16294830437257718,0.6452633761765136,0.019537524476485428
130,4.300234077299946,156.90428161621094,1.0145375904962965,120.32845306396484,0.9960296713271354,106.92849731445312,0.9877496234554165,124.32131958007812,1.0,71605.0,0.0016985761413678968,0.001159201567389129,0.0009350960819313419,0.0019175835562351793,0.0009959556793915551,103.0,0.805018961429596,0.811707748527803,0.4909433698764053,0.8972720323797351,0.3378712832927704,0.04280540831798303,0.15512883178548983,0.6177731910891803,0.02399659695063721
131,4.333569225185991,154.18553161621094,0.9969582482007908,118.77046203613281,0.9831332594489136,105.84001922607422,0.9776948312443751,127.74058532714844,1.0,71554.0,0.0037255013582766783,0.0013772249529282149,0.0013876969579782452,0.001600770144132665,0.0014283214135110672,103.0,0.9641324281692505,0.7976772786986053,0.4753053637812002,0.8983553044569994,0.3438187539577484,0.04426867545511613,0.390278670654331,0.7015413088400813,-0.0024625841355300822
132,4.366904373072038,153.7715606689453,0.9942815265521003,118.23240661621094,0.9786794569656748,105.36144256591797,0.9732739899556984,127.2254409790039,1.0,72099.0,0.006812059348102556,0.00187350286915568,0.0021443208441580945,0.0012467190075506351,0.002182069311125986,103.0,0.9520261287689209,0.7955635075844788,0.4691327202873826,0.9088491113071978,0.3461636006832123,0.04171183663179125,0.366523807542407,0.6937501013565208,0.0025819662503548217
133,4.400239520958084,153.13565063476562,0.9901697545392298,117.5595474243164,0.9731098040474586,104.77822875976562,0.9678865653505728,126.81766510009766,1.0,71668.0,0.01000321867843837,0.002269487592686909,0.002733502123464508,0.000847193765954016,0.0027917011325181646,103.0,0.9346213936805725,0.794054994325687,0.46161466763409054,0.9037009015824979,0.34751999378204346,0.04751276716474371,0.3429145504269688,0.6834472146243153,0.003252797694706794
134,4.43357466884413,152.16188049316406,0.9838733909028686,116.82299041748047,0.9670128866953963,103.93106079101562,0.9600608700200242,126.70233154296875,1.0,72356.0,0.007870887250920305,0.002232938117468359,0.0027535444418728214,0.0003918589450076886,0.0028433496829608114,103.0,0.9124020934104919,0.7931938378756888,0.4562717673724363,0.9141629816803537,0.35066497325897217,0.03720783322804801,0.32470009397976674,0.6757260564072264,-0.003108820486423112
135,4.466909816730176,151.63356018066406,0.9804572902628297,116.26813507080078,0.9624200212964397,103.07685852050781,0.9521701954829305,126.0843734741211,1.0,71690.0,0.004278650851612414,0.0016075149985220725,0.002035793237068843,-0.00011868782979012019,0.002147664637906802,103.0,0.8933672904968262,0.7913191054075418,0.44910029292788395,0.9067796610169492,0.35067564249038696,0.04137364027321022,0.31021062909750313,0.6670279870815019,-0.001501052868092649
136,4.500244964616222,151.4409942626953,0.979212165780468,115.78362274169922,0.9584094265981729,102.40654754638672,0.9459782127195417,125.1673355102539,1.0,71263.0,0.004488952542694408,0.0004565095204882245,0.0006995498681470044,-0.0006641432364471641,0.0008092555869528558,103.0,0.8766894936561584,0.7918555210979049,0.44237542623801973,0.9025774175163067,0.34993675351142883,0.039769488949401556,0.30026802127331154,0.6612339636563788,-0.0045509994925173585
137,4.5335801125022686,151.20225524902344,0.9776684876781675,115.09671020507812,0.9527234458458276,101.69770812988281,0.9394303243237749,124.31806182861328,1.0,70305.0,0.009057916023646057,-0.0009773880318215678,-0.00091105106262276,-0.0012008592272501506,-0.0008249043970605058,103.0,0.859197735786438,0.7942061968091411,0.4399829315126947,0.8932496474265313,0.347890168428421,0.04759424193527895,0.28640921698314487,0.6533074379954221,0.0006523560485721704
138,4.566915260388314,150.42579650878906,0.9726479326536462,114.63880920410156,0.9489331288269541,101.01716613769531,0.9331438327578083,123.48218536376953,1.0,70384.0,0.003850425464321655,-0.002362394000559882,-0.0023686841108127945,-0.0016684333048572174,-0.002311644655590989,103.0,0.8405590057373047,0.7952186102902176,0.4365480791088884,0.8946398383181015,0.3469133675098419,0.04133565518030328,0.2747073198454194,0.647511232632605,-0.0008109243221647022
139,4.600250408274361,150.7051239013672,0.9744540537926409,114.3401107788086,0.9464606255511717,100.50264739990234,0.9283909773237586,122.1002197265625,1.0,69587.0,0.005399916649940578,-0.003381033257409013,-0.00331897369289525,-0.0019978253888430363,-0.0032773775457301036,103.0,0.824000895023346,0.7942048562710468,0.4338885136591605,0.8806585924547882,0.34324032068252563,0.04810357264892365,0.2640148303562447,0.639947589457467,0.007520475570138893
140,4.633585556160407,151.20716857910156,0.9777002570983989,114.48436737060547,0.9476547225586172,100.25920867919922,0.9261422175380314,120.28356170654297,1.0,68544.0,0.0014565507466966776,-0.0038195751660343802,-0.003591653490344568,-0.002132473611895535,-0.0035476435261331883,103.0,0.81284099817276,0.7947644335511983,0.43456757703081234,0.8697042366107114,0.3347327709197998,0.048240772461395964,0.2534284547152194,0.6351303036026502,0.020141735470665216
141,4.666920704046452,145.5183563232422,0.9409165962613891,110.6781997680664,0.916148825410935,97.1897201538086,0.8977878853319106,126.46713256835938,1.0,72002.0,0.0070032550854911835,-0.0036235283505535714,-0.003232729020793966,-0.002038422831365382,-0.0031773696092204057,103.0,0.9445047974586487,0.9223817856911382,0.8236437876725646,0.9176437601957586,0.3562094569206238,0.05083860114192496,0.34874031276908973,0.7122164428739998,-0.020237941416439767
142,4.700255851932499,144.81185913085938,0.9363484101553804,110.0767593383789,0.9111703477670311,96.40900421142578,0.8905760391217606,126.3203125,1.0,72974.0,0.004477116276882825,-0.0029051962800286596,-0.00245722722372022,-0.001722095537296563,-0.002400703747004023,103.0,0.9289725422859192,0.8991375923845023,0.7655877435799052,0.9287650659912691,0.3590638041496277,0.04438024207404768,0.32334804176830106,0.6996394236701928,-0.020497871085245516
143,4.733590999818545,144.120849609375,0.9318803667870577,109.37577819824219,0.9053679128745477,95.72093963623047,0.8842200578620266,126.03375244140625,1.0,72827.0,0.00624383747706192,-0.001901199841389164,-0.0015511747514347783,-0.0012286623015122476,-0.0015138432790718676,103.0,0.9122473001480103,0.8633885784118527,0.6549768629766433,0.9259513547189483,0.3630346953868866,0.04666183519599242,0.3005478737281503,0.6833832218336444,-0.02447214691448954
144,4.766926147704591,143.55691528320312,0.9282339871817388,108.74172973632812,0.9001195192897816,95.12039947509766,0.8786725814368752,125.43940734863281,1.0,72382.0,0.008680259915502309,-0.0008939237781933365,-0.0007662467433682517,-0.0006401715770108871,-0.0007646256102375275,103.0,0.8961309194564819,0.8452147403129692,0.5966676798098974,0.9227807595711317,0.36453795433044434,0.04686444243297339,0.2799452902655356,0.6715664251905458,-0.02636710271031044
145,4.800261295590637,143.16217041015625,0.925681580655693,108.25562286376953,0.8960957256135925,94.6653060913086,0.8744686663930421,124.99964141845703,1.0,71713.0,0.010931108940781642,-0.00012372015183189692,-0.00024720998120498946,-5.8104256067872674e-05,-0.000279568031136341,103.0,0.8799910545349121,0.8125351516926266,0.4897159510827883,0.9143334353325173,0.3635503947734833,0.055130558955528354,0.2608732029060282,0.6558585451205744,-0.029698891818877943
146,4.833596443476683,142.7076873779297,0.9227429092842869,107.72267150878906,0.8916841724903062,93.83135223388672,0.8667650361229448,124.0083999633789,1.0,71976.0,0.007669696060085218,0.0002774681186204712,-1.3942591747030707e-05,0.00041548750788360494,-6.0586183307139045e-05,103.0,0.8627700209617615,0.7836547367641066,0.4044959430921418,0.9162380976628138,0.36486735939979553,0.04739294261418606,0.249485939757697,0.6447377697265314,-0.03840561515333149
147,4.86693159136273,142.370849609375,0.9205649280681114,107.26033782958984,0.8878571635758687,93.35868072509766,0.8623987435391117,123.32999420166016,1.0,71277.0,0.009450184086496005,0.00030894577207042336,5.2602539814231625e-06,0.000701877854052259,-2.9829704522918285e-05,103.0,0.8493727445602417,0.7748923215062362,0.37559100411072294,0.9093193850864324,0.3633069396018982,0.04951202398418065,0.23588254275572765,0.6365762351549844,-0.03898051959214413
148,4.900266739248775,142.1547088623047,0.9191673695663163,106.8614501953125,0.8845553350461317,92.89154815673828,0.8580836167947058,122.78050231933594,1.0,70236.0,0.010582448519387111,7.708792499272657e-05,-8.634403258281166e-05,0.0007616384588269648,-9.663341307968354e-05,103.0,0.8407295942306519,0.7696812650682462,0.3649268181559314,0.8961302422904679,0.36203184723854065,0.05144366331959631,0.2239592231903867,0.6306795100782541,-0.041492825063879926
149,4.933601887134821,142.40350341796875,0.9207760664510158,106.85122680664062,0.8844707100202179,92.80841064453125,0.8573156358687604,121.88280487060547,1.0,69606.0,0.011417599863225658,-0.00026041068836933634,-0.00020774927864725384,0.0006068418996573162,-0.00020115979588091495,103.0,0.8293601870536804,0.7624151174707161,0.34186708042410135,0.8860121434299462,0.3601331114768982,0.05753490917885465,0.21358790908829697,0.623335066606606,-0.03698174984175598
150,4.966937035020868,143.38177490234375,0.9271015356121232,108.24699401855469,0.8960242995656011,94.07235717773438,0.8689913139489237,119.70797729492188,1.0,69195.0,0.003069288366242151,-0.0005560010459764723,-0.00032254082813363395,0.00029688853950278634,-0.0003252198194035475,103.0,0.8366574048995972,0.757872678661753,0.32867981790591805,0.8807805399625769,0.35784807801246643,0.05447995824900396,0.21789146614639787,0.6256003868666888,-0.023907575697793178
151,5.000272182906913,139.09823608398438,0.8994043236124816,104.83816528320312,0.8678074108877601,90.99598693847656,0.8405734120635147,124.53834533691406,1.0,71743.0,0.008919863463471955,-0.0007132227696124033,-0.0004238396621401532,-6.923900299327036e-05,-0.00046090180252379346,103.0,0.9419847726821899,0.9005942507747563,0.7685488479712307,0.9144011521941396,0.37532123923301697,0.06017155456990275,0.3138145881828192,0.6987505122308781,-0.06584905259888726
152,5.03360733079296,139.83895874023438,0.904193810369357,105.40867614746094,0.8725298662517729,91.7320785522461,0.8473730420273715,124.6393051147461,1.0,71394.0,0.011806900456196756,-0.0006916706841582944,-0.0004973455112416822,-0.00037889163284208084,-0.0005770877800635847,103.0,0.9455122947692871,0.8473774640259218,0.622335210241757,0.9099529690666462,0.3755500018596649,0.061420614588511196,0.31254727288007395,0.6885357227393591,-0.06211941432424342
153,5.066942478679006,140.305419921875,0.9072099320354265,106.1154556274414,0.8783802974276103,92.44125366210938,0.8539240313831036,124.81700897216797,1.0,71369.0,0.008506140497444803,-0.0004829936521728189,-0.0004912067821924701,-0.0005269879085529174,-0.000597675924360761,103.0,0.945570170879364,0.8473800482936102,0.6224411158906528,0.9096343313067972,0.37524130940437317,0.06173925234836029,0.3110033768162648,0.6881909473660784,-0.061945531324989124
154,5.100277626565052,140.86691284179688,0.9108405255934254,106.8970947265625,0.8848503858827503,93.35282897949219,0.862344688168808,125.18405151367188,1.0,71506.0,0.007322320938206672,-8.570698579126594e-05,-0.00031853035199944156,-0.00044172358553922067,-0.0004214303156193545,103.0,0.9465318918228149,0.7568362561649838,0.3519564791765726,0.9113804662307702,0.37405073642730713,0.05741852432480659,0.3117920174530809,0.6711716637873476,-0.06129368365939648
155,5.133612774451098,141.63523864746094,0.9158084933478121,107.67965698242188,0.8913281158514244,94.22777557373047,0.8704269879364832,125.45301055908203,1.0,71764.0,0.007115691188608553,0.0004955703306794136,0.00010152267283693708,-0.00010309999595608214,2.821774934865596e-05,103.0,0.9474202394485474,0.7551000501644278,0.3460648793266819,0.9146688079124129,0.37338292598724365,0.05356938018582954,0.31161863887185776,0.6716276968396613,-0.06114158726266852
156,5.166947922337144,142.41282653808594,0.920836349419219,108.52861785888672,0.8983554664175067,95.2867431640625,0.8802091775760319,125.89463806152344,1.0,71600.0,0.008277521059358695,0.0012265825821986271,0.0007845038741502484,0.0004506493918319445,0.0007477348413184374,103.0,0.9493975043296814,0.7511778398510242,0.3338268156424581,0.9125785442078028,0.3723333179950714,0.05363310773779936,0.3125558659217877,0.6715148199989348,-0.06211235048352863
157,5.200283070223191,143.49258422851562,0.9278180248348579,109.47490692138672,0.9061884598608888,96.40189361572266,0.890510355151587,126.11554718017578,1.0,71244.0,0.010146902246734285,0.0020197903905461094,0.0016395276955837852,0.0011271863900165905,0.001624512237397161,103.0,0.9495373368263245,0.7516843523665151,0.3342456908651957,0.9080411425075517,0.37296926975250244,0.059776443747689874,0.3131632137443153,0.6707896164291168,-0.0618260471063022
158,5.233618218109236,144.62945556640625,0.935168995094988,110.70901489257812,0.91640390039576,97.75743103027344,0.9030321019677305,126.701904296875,1.0,70945.0,0.008831718067713906,0.002735715163331041,0.0024761199775158085,0.001795943643890656,0.0024569060696980178,103.0,0.9487146735191345,0.7440740479714333,0.32939601099443233,0.905788774832746,0.37061023712158203,0.05853888974005413,0.306434561984636,0.6679141680125888,-0.06013930515072169
159,5.266953365995282,145.55201721191406,0.941134246388813,111.73637390136719,0.924907957664037,98.98222351074219,0.9143460953537623,127.35595703125,1.0,70304.0,0.00915156189765473,0.003215791998338069,0.0030635971750013436,0.0023140374966494387,0.0030202985081205272,103.0,0.9447933435440063,0.745600060688818,0.3386151570323168,0.903336888226451,0.36924484372138977,0.05907975381294409,0.30139110150204823,0.6661438077141038,-0.05890222539872692
160,5.300288513881329,146.84805297851562,0.9495143682714088,112.99820709228516,0.935352896216946,100.275634765625,0.9262939531472414,127.58193969726562,1.0,70557.0,0.007310063177958154,0.003332990202011761,0.003217989045928278,0.0025532547498569444,0.003147535268310276,103.0,0.9318446516990662,0.7483264122151829,0.35406834190796094,0.9096851551017251,0.36837393045425415,0.04935406513498879,0.29496718964808594,0.6637232328758221,-0.055505872094226034
161,5.3336236617673745,147.5373992919922,0.9539716573949948,113.55995178222656,0.9400027887788879,100.97200012207031,0.9327266126897531,128.75987243652344,1.0,69564.0,0.009370069987935409,0.0030365401066488845,0.0028747431882414336,0.0024286790669631173,0.0027919981180888533,103.0,0.9592987298965454,0.7592816207616967,0.3756540739462941,0.8956469118953507,0.36757558584213257,0.05213148102846696,0.2828618250819389,0.6699123346783088,-0.05298986637337823
162,5.366958809653421,148.76806640625,0.9619291078605986,114.94371795654297,0.951457038648329,102.45372772216797,0.9464140385473886,129.32273864746094,1.0,70383.0,0.00691762041903457,0.0023689064872129107,0.0021108317495750857,0.0019156644238336395,0.002037019027213978,103.0,0.9651447534561157,0.7640576086081392,0.38963954363979936,0.9065418153247723,0.3625180721282959,0.040469351743324875,0.26760723470156145,0.671144060747037,-0.04655838262878727
163,5.400293957539467,149.87265014648438,0.9690713076449223,116.24949645996094,0.9622657385066581,103.89404296875,0.9597189187074898,129.94569396972656,1.0,70056.0,0.0048610510103898885,0.001444981241657626,0.001105134612817292,0.0010602406219594742,0.0010558742768199394,103.0,0.9475803375244141,0.7683377107837539,0.39621160214685397,0.9035170305789494,0.35922959446907043,0.04179939899660807,0.25832191389745346,0.6655391054778877,-0.04171974902027583
164,5.433629105425513,151.2231903076172,0.9778038530339361,117.61917114257812,0.973603344776948,105.02495574951172,0.9701657004486872,130.1890869140625,1.0,70343.0,-0.002107510895844128,0.0004033207305348026,5.832590079884046e-05,-2.897961218188585e-05,3.4027023077614545e-05,103.0,0.9217298626899719,0.7720218548161627,0.40278350368906646,0.9056300130032315,0.35712212324142456,0.038404593616829526,0.2509418136843751,0.6588804643939078,-0.03459172757184266
165,5.466964253311559,152.11387634277344,0.98356299774744,118.58451080322266,0.9815940312723499,106.43658447265625,0.983205589484483,130.43023681640625,1.0,69970.0,0.0027065069136407993,-0.0006418914980215189,-0.0008847111717808005,-0.0011942883284270362,-0.0008946465313819664,103.0,0.894317090511322,0.7757896241246248,0.4172645419465485,0.8971893111760784,0.3572767674922943,0.04640457506283018,0.24490495926825784,0.6502934572963542,-0.02946992418629548
166,5.500299401197605,153.10137939453125,0.9899481578999759,119.69161987304688,0.9907582268957584,107.49396514892578,0.9929731200405595,131.0175323486328,1.0,70476.0,-0.0013574786073640988,-0.001618005292363559,-0.0016690878950115073,-0.0022608613095987987,-0.0016803090981284598,103.0,0.8645005226135254,0.7776548044724446,0.4208382995629718,0.9034805461188385,0.3559474050998688,0.0406384206140632,0.240379703728929,0.643229884995406,-0.028082621098316496
167,5.533634549083651,153.82838439941406,0.9946489468034724,120.64260864257812,0.9986301225898591,108.72217559814453,1.0043186868371468,131.8490753173828,1.0,70042.0,-0.00048120398171305756,-0.0024729193583799157,-0.0023060404721242417,-0.003061472526844667,-0.0023275945084933296,103.0,0.8387844562530518,0.7795751120756118,0.42698666514377087,0.8984811945199856,0.35340824723243713,0.046898250295038225,0.23628679934896205,0.6353647763009715,-0.024310064884297655
168,5.566969696969697,154.73814392089844,1.0005314200116633,121.62813568115234,1.0067879119349383,109.5926742553711,1.012359898885282,132.06387329101562,1.0,70410.0,-0.005033367966624985,-0.0031392040508718255,-0.0028111176582441178,-0.0034714131804501596,-0.0028439613949528984,103.0,0.8138758540153503,0.7833262320693084,0.4376509018605312,0.9030975437696402,0.35147103667259216,0.04207015968703905,0.22992472660133503,0.62938792968804,-0.01985133452706051
169,5.600304844855743,155.53746032714844,1.0056997719042178,122.4622573852539,1.013692429907437,110.42937469482422,1.0200889006460043,132.49481201171875,1.0,70516.0,-0.006998284307656061,-0.0035178568687935213,-0.003146758655617338,-0.0034262813230447405,-0.0031837196488334247,103.0,0.7883569002151489,0.786757615292983,0.4469198479777639,0.9011744559035898,0.3501797020435333,0.04531687305908063,0.2244171535538034,0.6220734791336917,-0.01720564352578763
170,5.63363999274179,156.13975524902344,1.0095941897780516,123.21806335449219,1.0199486822896338,111.34019470214844,1.0285025802717869,132.6830596923828,1.0,71034.0,-0.007193352846534773,-0.0034994397630267794,-0.003208295217154594,-0.0029355015607981406,-0.0032398324623426613,103.0,0.7652580738067627,0.78820940207037,0.4531914294563167,0.9062308634415187,0.3490315079689026,0.04107981220657277,0.2193034321592477,0.6162443153445626,-0.014176745547496015
171,5.6669751406278355,156.90528869628906,1.014544102240816,123.7718276977539,1.0245325168089594,111.91392517089844,1.0338024027578934,133.3260498046875,1.0,70956.0,-0.006364427900193592,-0.0030123315754827375,-0.002866729897103547,-0.0020786457518633113,-0.0028850052248839296,103.0,0.9620834589004517,0.7923877708251122,0.46086307007159366,0.9058366950926824,0.346569299697876,0.043877342593065416,0.38695811488809967,0.6993696670528649,-0.010579302986427192
172,5.700310288513881,157.2044677734375,1.016478583677081,124.28913116455078,1.0288145431201943,112.48757934570312,1.0391015204803713,133.27499389648438,1.0,70888.0,-0.008200669019375217,-0.0020711800630272607,-0.0020488434586654297,-0.0009914529259828855,-0.002052206962704862,103.0,0.9623216986656189,0.7939519617800851,0.46706071549486516,0.9027098614506928,0.3441344201564789,0.045907192339038304,0.36822875521950116,0.6956714172920759,-0.009480339366408151
173,5.733645436399928,157.74810791015625,1.019993741764053,124.75106048583984,1.032638204925398,113.1873550415039,1.0455656829570759,133.1845245361328,1.0,70651.0,-0.004575869040176206,-0.000801004831622782,-0.0008126094274482728,0.0001606295176885777,-0.0008061907177898972,103.0,0.9506208300590515,0.7975872009360566,0.4772331601817384,0.8952003243708978,0.34457656741142273,0.05121512379311219,0.35056828636537346,0.689091885168151,-0.006339620281886525
174,5.766980584285974,158.28651428222656,1.0234750585120826,125.28949737548828,1.0370951650588573,113.63748931884766,1.0497237883650583,132.8214569091797,1.0,70941.0,-0.007159780355554868,0.0005744144586926945,0.0006256367892111271,0.0012091122013684875,0.0006302837213530497,103.0,0.9310813546180725,0.8004351033487921,0.48440253168125624,0.8983853606027987,0.34444451332092285,0.04605838029506743,0.3354618626746169,0.6825803910119892,-0.0053728519831721805
175,5.80031573217202,158.61154174804688,1.0255766747243478,125.67220306396484,1.0402630460662339,114.09400177001953,1.053940812012381,132.62692260742188,1.0,71219.0,-0.007176205531314539,0.001778421501688051,0.0019356814068368176,0.0020140958289556954,0.0019280057708403822,103.0,0.9120675325393677,0.8018927533382946,0.4891250930229293,0.8983563959282012,0.34450581669807434,0.04652042837140659,0.3251098723655204,0.6759741397361799,-0.00465621223079191
176,5.833650880058066,158.9417724609375,1.0277119349499637,125.91615295410156,1.042282363382347,114.32664489746094,1.0560898477446794,132.3352813720703,1.0,71333.0,-0.007194593665569071,0.0025518980930332286,0.0027799553715625665,0.002483347277567968,0.0027573334513528364,103.0,0.8954522609710693,0.804157963354969,0.49465184416749614,0.8962783334170981,0.34343403577804565,0.04711765592802935,0.3186042925434231,0.670876691473961,-0.003034355522608636
177,5.866986027944112,159.29925537109375,1.0300234069287886,126.20272827148438,1.0446545165341168,114.787109375,1.060343378147957,132.390625,1.0,70809.0,-0.004348390689738746,0.002731382867580784,0.002941037466820451,0.0025864549450970763,0.0029154177582229445,103.0,0.8821970820426941,0.8058438899010013,0.50095326865229,0.8920706510784117,0.34432512521743774,0.049763152590203585,0.3137736728381985,0.6665106786440809,-0.0001535115900094374
178,5.900321175830158,159.6450653076172,1.032259401868865,126.65327453613281,1.0483839540567357,115.1069107055664,1.0632975358494212,132.15823364257812,1.0,71587.0,-0.008267549447519174,0.002309593646482347,0.0024139534210688967,0.0023522696796565742,0.002407478276391672,103.0,0.8652858734130859,0.8076652651086557,0.5055945911967257,0.899628019202252,0.34408777952194214,0.042928594767134995,0.30811460181317835,0.6626088665748967,-0.00044032115820515083
179,5.933656323716204,160.0509796142578,1.0348840295613995,127.07605743408203,1.0518835777962952,115.51011657714844,1.0670221411495309,132.24838256835938,1.0,71459.0,-0.009599996857220072,0.0014497180057408232,0.0014174953372891467,0.0018600633097643458,0.0014513482474361474,103.0,0.8463081121444702,0.809102655602047,0.5092850445710128,0.8989344973771275,0.34276413917541504,0.04599147094712742,0.3019213814914846,0.6564232001032835,0.0008082485671156974
180,5.966991471602251,160.4855499267578,1.0376939459843522,127.53950500488281,1.0557198070493767,115.956787109375,1.0711482502887808,132.5043182373047,1.0,70963.0,-0.011064500090470997,0.00043717042108329455,0.00031293538988108106,0.0012176436676843683,0.0003916129673078422,103.0,0.8288018703460693,0.8128367365152732,0.5197920042839226,0.8954886743643132,0.3425943851470947,0.04528992365448924,0.29546383326522274,0.6516141937578983,0.0008815758381402576
181,6.0003266194882965,161.66603088378906,1.0453268945147351,128.3917236328125,1.0627741239483437,116.67647552490234,1.0777963560725161,132.67030334472656,1.0,71814.0,-0.012484212186170296,-0.00042007486690390846,-0.0005382200859050899,0.0005400224734375272,-0.0004329649934852951,103.0,0.95977783203125,0.8145997530657904,0.5265964853649706,0.9042420579458316,0.3402819037437439,0.04789785819514222,0.4658980143147576,0.7183803541726993,0.011029912579921615
182,6.033661767374342,161.8202667236328,1.0463241780541734,128.72950744628906,1.0655701600657352,116.96641540527344,1.0804746692897969,132.8901824951172,1.0,71987.0,-0.01540496418587034,-0.0009039470180224377,-0.0009149884795760929,-7.3314297026655e-05,-0.0008167662400703403,103.0,0.9601902961730957,0.8167539509448466,0.5311514579021213,0.9084679454820798,0.33800217509269714,0.042453306410903585,0.44430244349674247,0.7154663239058472,0.009790717651622675
183,6.066996915260389,162.02442932128906,1.047644286261305,129.0836944580078,1.068501975142615,117.4640121459961,1.0850712081510514,133.25048828125,1.0,71719.0,-0.0149252384237884,-0.0009619835444435215,-0.000812305155686345,-0.0005531961969552551,-0.0007493978199383528,103.0,0.9488511681556702,0.8207076692833605,0.5373192598892902,0.9072038454240718,0.3357611894607544,0.04104737208272721,0.42497803929223776,0.7097823542208008,0.013715571733950792
184,6.100332063146435,162.31829833984375,1.0495444330446493,129.33224487304688,1.0705593737203893,117.6835708618164,1.087099376921067,133.346435546875,1.0,71567.0,-0.015565491798928105,-0.0007101021606192973,-0.0004175440526035215,-0.0008692150342251444,-0.00039381306086536203,103.0,0.9326980113983154,0.8233683122109352,0.5459080302373999,0.9035552862156907,0.33435365557670593,0.03923945155670025,0.4103707015803373,0.7036439933587613,0.01570119268576909
185,6.13366721103248,162.77401733398438,1.052491096102511,129.57925415039062,1.0726040153912721,118.08065032958984,1.0907673897018104,133.35443115234375,1.0,70780.0,-0.011959474036774748,-0.00036024508717516496,-2.6781626656383143e-06,-0.0010254212492777602,9.461549590230133e-06,103.0,0.9120795726776123,0.8299378355467647,0.5591833851370444,0.897346501515017,0.3341274559497833,0.046236545507562406,0.3998869737213902,0.696587007741824,0.020299475468728782
186,6.167002358918527,163.04177856445312,1.0542224308423274,129.96434020996094,1.0757916001360257,118.36199951171875,1.0933663465345251,133.53366088867188,1.0,70911.0,-0.015391430969454195,-0.0001096476244414287,0.0002120544150690194,-0.0010533788354281648,0.0002555040010405555,103.0,0.8920971155166626,0.8327386912232705,0.565807843634979,0.9025085591375953,0.33230721950531006,0.04057476677145512,0.39123690259621213,0.6913274349596293,0.02198743212036807
187,6.200337506804573,163.38038635253906,1.05641185694281,130.3546600341797,1.0790225078418065,118.85719299316406,1.0979406853414828,133.62290954589844,1.0,71046.0,-0.014861792320713135,-4.94983193643091e-05,0.00015461779672801238,-0.000994619348872472,0.00026128033783537146,103.0,0.8689083456993103,0.8362234796235303,0.5775131604875714,0.9031347723285791,0.3312433063983917,0.043157145399537286,0.3809644455704755,0.6837595281997028,0.0266386004962621
188,6.233672654690619,163.7302703857422,1.0586741948493514,130.7139129638672,1.081996256513617,119.21766662597656,1.1012705525332855,133.79373168945312,1.0,71220.0,-0.01565782049681544,-0.0001388986380897173,-8.700278056786142e-05,-0.0008894218393929634,7.852118948823962e-05,103.0,0.846365749835968,0.8396658242066835,0.5884723392305532,0.9078972528523169,0.33026742935180664,0.04318949582510039,0.37117382757652345,0.6768490484836174,0.030015605767125784
189,6.267007802576665,164.1476593017578,1.0613730169642899,131.06764221191406,1.0849242824102319,119.62026977539062,1.10498959020073,133.94638061523438,1.0,71382.0,-0.015083189441524397,-0.0002519592851420085,-0.000335772673067744,-0.0007632893153209459,-0.00015385512068150667,103.0,0.8250734806060791,0.8448068140427559,0.605166568602729,0.9083875237016582,0.3299660086631775,0.0438910169124852,0.36199602140595666,0.6706063745352647,0.033329727337346904
190,6.300342950462711,164.60910034179688,1.0643566785705578,131.4832305908203,1.0883643528666296,119.89244842529297,1.1075038344453025,133.8087921142578,1.0,71770.0,-0.017967564069928527,-0.0002652136605150526,-0.00043393416329706947,-0.0006245201000236472,-0.0002953987839766365,103.0,0.8003330826759338,0.8496307649435697,0.6165528772467604,0.9130578596509084,0.3288089334964752,0.04418350211185181,0.3503274348613627,0.6630055502920736,0.03523710432870367
191,6.3336780983487575,165.4736328125,1.0699467152521467,132.02493286132812,1.0928483424859778,120.45430755615234,1.1126939957108188,134.73265075683594,1.0,71309.0,-0.016246004258644614,-0.0001321800006872934,-0.00032662184980892384,-0.0004645174835845313,-0.0002725769288421658,103.0,0.9619569182395935,0.8557732310554536,0.6299625573209553,0.9111108271791072,0.32632726430892944,0.04814351059208341,0.3706684990674389,0.7080746138897436,0.04490022988609485
192,6.367013246234803,165.25503540039062,1.0685332720402358,131.81832885742188,1.0911381591264675,120.31690979003906,1.1114247868923044,134.5911102294922,1.0,70965.0,-0.014750360710725358,9.794563809548132e-05,-7.72228868174174e-05,-0.00026787857381137687,-0.00010474101559689844,103.0,0.9644447565078735,0.8618567838605885,0.643190305079969,0.9069820942448525,0.32456153631210327,0.05217080122183454,0.3595716198125837,0.7070495416661093,0.046159863283482074
193,6.40034839412085,164.79653930664062,1.0655686523535477,131.3630828857422,1.08736981935313,119.8811264038086,1.1073992475228374,134.21197509765625,1.0,70444.0,-0.013492003093155097,0.000324995124570402,0.00018701668210353238,-2.1853631595346853e-05,0.00012510053578414156,103.0,0.9634225368499756,0.8614454980788522,0.6482028277780932,0.9003233516097287,0.32396623492240906,0.06156461280881357,0.35758900687070583,0.7048121971529953,0.0441492690465949
194,6.433683542006896,165.22796630859375,1.0683582442405757,131.28329467773438,1.0867093652329765,119.49706268310547,1.1038514674171114,133.8141632080078,1.0,69829.0,-0.014388343589766178,0.00047265286877035107,0.0003599686957555903,0.0002719836513134147,0.00032569129066087804,103.0,0.952836811542511,0.8697150658513416,0.6646379011585445,0.89031262749898,0.3230220079421997,0.06948694410444717,0.3452147388620774,0.7000772527715999,0.052372548730015005
195,6.467018689892941,164.67233276367188,1.0647655371961446,130.83692932128906,1.0830145355567757,119.11901092529297,1.100359222685309,133.8379364013672,1.0,69360.0,-0.013162855211654806,0.0005404491210160011,0.00041764809434133705,0.0005924315495771384,0.00044900464424631545,103.0,0.95150226354599,0.8680219146482123,0.6633506343713956,0.8843329253365974,0.3233106732368469,0.07754487964096288,0.34498269896193773,0.6980693078659735,0.05132034983867144
196,6.500353837778988,164.28208923339844,1.0622422361948451,130.3985137939453,1.0793855113111739,118.55951690673828,1.0951909090922751,133.68966674804688,1.0,69574.0,-0.013871895600772871,0.0005959223412071238,0.0004190964877775423,0.000897496031488045,0.0005052658062015485,103.0,0.9521658420562744,0.8691608934372036,0.6656940811222584,0.8870614035087719,0.3225899338722229,0.07496940024479805,0.34476959783827293,0.6988324547299962,0.05142525472723818
197,6.533688985665034,164.05357360839844,1.060764662165697,130.00514221191406,1.0761293424036276,117.87603759765625,1.0888772841266123,133.42236328125,1.0,69256.0,-0.016572290240321808,0.0007116826192540768,0.00045054990392789235,0.0011316371287921792,0.0005390756565598758,103.0,0.9530810117721558,0.8702061915213122,0.6659639598013168,0.8830069359445124,0.32230591773986816,0.08089810281517748,0.34425898117130643,0.6982195910311343,0.05453811653831296
198,6.56702413355108,163.60650634765625,1.0578739409130253,129.40518188476562,1.0711631164425799,117.32170867919922,1.0837566830312262,133.5314483642578,1.0,69782.0,-0.013361843792170924,0.0008917585107189001,0.0005519634247794638,0.0012383640932477368,0.0005839343392597214,103.0,0.9537174701690674,0.8685859772816295,0.6612020291765784,0.8897133822929416,0.3222006559371948,0.07029018767849857,0.34686595397093806,0.7002733237642206,0.05368408238623023
199,6.600359281437126,163.0740966796875,1.0544313986437255,128.84310913085938,1.0665105083014481,116.820556640625,1.0791273021848848,133.5948028564453,1.0,70257.0,-0.010935858868060921,0.0010414320167817803,0.000674611157768925,0.0011735346842049867,0.0006233701694425643,103.0,0.9491495490074158,0.9631495794013408,0.9271958666040394,0.8957695838433293,0.3223675489425659,0.0689514483884129,0.3458587756380147,0.7180568265175791,0.05405012454577911
200,6.633694429323172,162.6095733642578,1.051427807152716,128.32273864746094,1.0622030944824392,116.24368286132812,1.0737984434372854,133.38150024414062,1.0,70431.0,-0.010342063084152031,0.0010060461954667396,0.0006971435922089984,0.0009201094871465015,0.0005857101719247001,103.0,0.9551109671592712,0.9619817031326168,0.9243514929505473,0.8973930992304164,0.32312580943107605,0.06680342490189083,0.3514929505473442,0.7207841245415074,0.05292286938506084
201,6.6670295772092185,162.16064453125,1.048525049038963,127.75653076171875,1.0575162574129156,115.56985473632812,1.0675739710706242,133.2374725341797,1.0,69955.0,-0.01002263574729012,0.0006566671315330877,0.0004902360858740993,0.0004958646668869161,0.0003743456594438687,103.0,0.9487664103507996,0.9572153527267528,0.9184046887284683,0.891328168798736,0.32563677430152893,0.07430813923857092,0.333314273461511,0.7134082255471813,0.05559497716277147
202,6.700364725095264,161.8106689453125,1.046262119155647,127.4993667602539,1.0553875590931587,115.21814727783203,1.064325081219733,132.429443359375,1.0,71739.0,-0.011767598663939116,-3.072233250255156e-05,-8.612385448184212e-06,-4.611649582564615e-05,-7.946915971615848e-05,103.0,0.9458674788475037,0.9541021387715655,0.9124186286399308,0.9081345890931186,0.32995957136154175,0.06178793862980404,0.318432094118959,0.7110876461092122,0.051857496054534644
203,6.73369987298131,161.08731079101562,1.0415849106603348,126.7955322265625,1.0495615049770248,114.4106674194336,1.0568660039287152,131.95155334472656,1.0,72170.0,-0.01215881767809035,-0.000948856209352072,-0.0007514894499226182,-0.0006242149041851687,-0.0007673735683606391,103.0,0.9377955198287964,0.9544824719412498,0.9122627130386587,0.9114675423086638,0.33016666769981384,0.05974993685274059,0.30390744076486076,0.7065668726019827,0.04900268318493142
204,6.767035020867357,160.34030151367188,1.0367547748316104,126.13431549072266,1.0440882235435434,113.65083312988281,1.049847051523678,131.80569458007812,1.0,72390.0,-0.013071439898343862,-0.0018956651164842746,-0.0015876651740389025,-0.0011438828950412763,-0.0015840922494586502,103.0,0.9194912910461426,0.9531841414560023,0.9090067688907307,0.9133001942923469,0.3310750424861908,0.05856526456561782,0.2926232905097389,0.699663866824185,0.04734705374519841
205,6.800370168753402,159.53256225585938,1.031531961075802,125.25077819824219,1.03677466356146,112.6081314086914,1.0402151174897194,131.59620666503906,1.0,71544.0,-0.013266301694339289,-0.00264662711598743,-0.0023132033525938207,-0.00151556497487887,-0.0023452570072298408,103.0,0.905473530292511,0.9546153416079615,0.9135357262663536,0.9066071926400893,0.3295217454433441,0.06646475910484832,0.2811137202281114,0.6928798334835666,0.0452841852755052
206,6.833705316639449,159.1095428466797,1.028796732389232,124.48736572265625,1.0304554476338632,111.89111328125,1.0335916784329804,131.21185302734375,1.0,71436.0,-0.008242178411005774,-0.0030229677888327904,-0.002735199475276543,-0.0016722292842419513,-0.0028373010140939135,103.0,0.9001962542533875,0.8383634768650726,0.5806176157679601,0.9045394112060778,0.3321714997291565,0.05385248496359608,0.27862702278962986,0.669830765900112,0.04146862933118962
207,6.867040464525495,158.19866943359375,1.0229070567969514,123.91426086425781,1.02571152024835,111.20712280273438,1.0272733315510068,131.0084991455078,1.0,72610.0,-0.01150351469334232,-0.002930301980117233,-0.0027242325361346246,-0.0015852974526925122,-0.0028855203807295177,103.0,0.867039144039154,0.9525180186383877,0.9077537529265941,0.9209441548393643,0.3333103358745575,0.055198305493195335,0.26610659688748106,0.6816529802360511,0.03757672003390722
208,6.9003756124115405,157.55503845214844,1.0187453614094315,123.12895965576172,1.0192111183510917,110.43187713623047,1.0201120168930182,130.4240264892578,1.0,72786.0,-0.008583037258168835,-0.0023675445559222085,-0.0022428866747621814,-0.0012669873200123235,-0.0024101149160388807,103.0,0.850626528263092,0.9517031663598311,0.9080455032561207,0.9234223947628835,0.33568426966667175,0.05388089619649337,0.2580303904597038,0.6759824000382411,0.03242456145663139
209,6.933710760297587,156.80738830566406,1.0139110817432857,122.22474670410156,1.0117264137270487,109.40064239501953,1.010586008832419,130.12135314941406,1.0,72568.0,-0.00757274342522174,-0.0014202043696853026,-0.0013524251308959507,-0.0007716210679210233,-0.0014637867340794848,103.0,0.8321025371551514,0.953404622790578,0.9114347921949069,0.920761803255808,0.3359243869781494,0.057021049826805226,0.24585216624407452,0.6687536241234295,0.03192204159013831
210,6.967045908183633,155.8124237060547,1.007477675483628,121.37837982177734,1.0047205351824666,108.60468292236328,1.0032333508493005,129.6473388671875,1.0,72984.0,-0.0061136054054157785,-0.00024830878604551257,-0.0002042321051197647,-0.00018149125657153543,-0.00022705844966453608,103.0,0.8117914795875549,0.9497789469838138,0.9037597281595966,0.9249486731047069,0.33902686834335327,0.051453628367931464,0.2345445577112792,0.6615799902970383,0.02524488732395177
211,7.0003810560696795,154.69891357421875,1.0002777579637907,120.07052612304688,0.9938946577069372,107.2012939453125,0.9902695762853796,130.95736694335938,1.0,70975.0,-0.003442315139902924,0.0009328667921159389,0.0009821085592908937,0.0004081602171521217,0.0010298491293216148,103.0,0.9632465243339539,0.8180439121756486,0.5322155688622755,0.8993854146866882,0.33220458030700684,0.04291959703478426,0.2705600563578725,0.6816652892646273,0.013552476249358111
212,7.033716203955725,154.25314331054688,0.9973954230487578,119.53997802734375,0.989502997780041,106.6421127319336,0.9851041522232227,129.9424591064453,1.0,71453.0,-0.0021395829546130007,0.00188763784324109,0.0019580490777890975,0.0009076840529350262,0.002017852032128657,103.0,0.949478030204773,0.8110879412574232,0.5242607028396289,0.9049723896853944,0.3374258279800415,0.04299863214955165,0.25525870152407876,0.6737590549635655,0.01517173930624189
213,7.067051351841771,153.7198028564453,0.9939468623489172,118.8284912109375,0.9836136012004807,105.83895111083984,0.9776849645535765,129.12742614746094,1.0,71513.0,-0.0007779463722603908,0.0024138045264295005,0.002504872257309621,0.0012495476788038818,0.0025128492400143853,103.0,0.9283402562141418,0.813274043414018,0.5189965460825304,0.9011668934926156,0.34154176712036133,0.04875497756943394,0.23640456979849817,0.6642199902849292,0.01596961656763725
214,7.100386499727818,152.78070068359375,0.9878746605844995,118.11807250976562,0.9777330460415381,105.22689819335938,0.9720311392968887,128.96981811523438,1.0,71655.0,0.0005694614707026091,0.0024058926075988156,0.002502843504295281,0.0013983490341171502,0.0024283192287497344,103.0,0.9096890091896057,0.8091689344777057,0.5070965040820599,0.901865277148467,0.3447888195514679,0.04670744600513518,0.2222454818226223,0.6562319441966454,0.01198261049791691
215,7.133721647613863,152.317138671875,0.9848772848496223,117.40331268310547,0.9718165568230844,104.32125091552734,0.9636652426451165,128.3155059814453,1.0,71581.0,0.0008599314125817548,0.0019048015748677637,0.001986755214986562,0.001353948002330958,0.0018514712846531512,103.0,0.8913607001304626,0.809525805264898,0.5044914153197078,0.9049888742793567,0.34527871012687683,0.042960453120258923,0.21015353236193962,0.6499023700587417,0.009594710432269794
216,7.167056795499909,152.17425537109375,0.9839534064302218,117.02611541748047,0.9686942722848942,103.71226501464844,0.9580397488862933,127.31123352050781,1.0,71350.0,-0.0003659791789854816,0.001106588253034311,0.0011572831770921576,0.0011468344806423204,0.0010225026689439831,103.0,0.8770748376846313,0.8091380518570427,0.5004484933426769,0.8994755685542837,0.3438403606414795,0.04361857697544249,0.2004625087596356,0.6442098492284227,0.006396079092274973
217,7.200391943385956,152.11370849609375,0.9835619124566868,116.65300750732422,0.9656058377570695,103.26825714111328,0.9539382359976771,126.50688171386719,1.0,70464.0,0.001678452382293888,0.00031293319512583253,0.0003280583177620332,0.0008288917976943763,0.00025793341909833884,103.0,0.86548912525177,0.810333409022101,0.4998722752043597,0.8916559107129299,0.34315645694732666,0.05093260445929188,0.1900403042688465,0.6382978072576453,0.008730015437810098
218,7.2337270912720015,151.92837524414062,0.9823635541395104,116.3314208984375,0.9629438754680474,102.87093353271484,0.9502679679733227,125.6184310913086,1.0,70012.0,0.002162864508349821,-0.0001716677230112044,-0.0001846106140042357,0.0004599895358574024,-0.00016183886799741464,103.0,0.8563573360443115,0.8102991868060713,0.49577215334514085,0.8852529492837002,0.34283363819122314,0.05057721243693654,0.18248300291378622,0.6345534179651395,0.005037766866060379
219,7.267062239158048,151.67872619628906,0.9807493321382489,116.12586212158203,0.9612423440701416,102.4823989868164,0.9466788887189682,124.96236419677734,1.0,69943.0,-0.000778501504738488,-0.00016340820211357352,-0.00019058005120153843,9.654141880894348e-05,-9.826426038176746e-05,103.0,0.8456803560256958,0.8112701294863913,0.4930014440329983,0.8844364077792671,0.34183523058891296,0.050036670797400165,0.17464220865561958,0.6305966893072421,0.00661479576697643
220,7.300397387044094,151.4591064453125,0.9793292785190228,115.73750305175781,0.958027666686495,101.8260498046875,0.9406158776995899,124.37762451171875,1.0,69623.0,-0.0030921138489315714,0.00031022724532708243,0.00028437802314157075,-0.00021810413870825918,0.0003867915703957041,103.0,0.8342254757881165,0.8111495722199082,0.4909584476394295,0.883462128998693,0.33862394094467163,0.04762267311279455,0.1654769257285667,0.626262040838677,0.007078550092542497
221,7.33373253493014,148.664794921875,0.9612613580589644,113.63262939453125,0.9406043842989282,100.36629486083984,0.9271314237669542,128.14483642578125,1.0,71373.0,0.006660845328031878,0.0010057388117685842,0.0009970221504978995,-0.0004562969038118406,0.0010533662830669761,103.0,0.9568731188774109,0.7985045698887068,0.47356843624339734,0.9038332467992959,0.3474105894565582,0.052350982055795456,0.2771075897047903,0.6759645545091248,-0.016325338108959208
222,7.367067682816186,148.04617309570312,0.9572613709936784,113.32036590576172,0.938019594981299,100.07421112060547,0.9244333066917135,127.83763122558594,1.0,72045.0,0.0052732962852375664,0.0015634886306381793,0.0015849234498320776,-0.0006094770348869683,0.0015749621125193541,103.0,0.9440634846687317,0.7993383764776644,0.4694704698452356,0.9147177572941266,0.3503393530845642,0.047751453746730656,0.2669720313692831,0.6716377201370956,-0.018018165461593322
223,7.400402830702232,147.58827209472656,0.9543005991560245,112.98648071289062,0.9352558300491628,99.83109283447266,0.9221875069132259,127.74590301513672,1.0,71717.0,0.00652132217469123,0.001673158738989634,0.0017261806896574012,-0.0006790770079075711,0.0016772957549615463,103.0,0.92642742395401,0.7995919145158518,0.4677412607889343,0.9110391260162601,0.35251662135124207,0.056465955284552845,0.2519765188170169,0.6628859898095478,-0.015874273451548022
224,7.433737978588279,147.1214599609375,0.9512822082456527,112.68449401855469,0.9327561078284783,99.42572784423828,0.9184429568024306,127.43384552001953,1.0,72206.0,0.004163133088045945,0.0012222558383439715,0.00128731824737291,-0.0006763444029925993,0.0012516277017583614,103.0,0.9091234803199768,0.8130533935314701,0.5070354264188571,0.9164244647231283,0.35320502519607544,0.050970288484725415,0.23550674459186216,0.6588376515471046,-0.01869957410303721
225,7.467073126474324,146.8670654296875,0.9496373021149129,112.41978454589844,0.9305649511873567,99.12010955810547,0.915619814659499,127.23725891113281,1.0,71213.0,0.0041265342273617,0.0003505970582996808,0.00038827933225498096,-0.0006135229068375965,0.0004087478514827416,103.0,0.8958990573883057,0.8510571571669967,0.6169519610183534,0.9079006081313665,0.3528129458427429,0.059882453433966115,0.22236108575681407,0.659077220382404,-0.02028698656200667
226,7.50040827436037,146.5132598876953,0.9473496078698638,112.08922576904297,0.9278287209651447,98.75634002685547,0.9122595016789464,126.93037414550781,1.0,71675.0,0.004094289096302051,-0.0006146574160198681,-0.0006471154407093289,-0.0005029213171776966,-0.0005636006080132007,103.0,0.8817956447601318,0.8132821764911057,0.5036623648412976,0.9124877465021833,0.3542700409889221,0.053100612356618164,0.21226369026857342,0.6470619865649099,-0.024544484416214783
227,7.533743422246417,146.5054473876953,0.9472990925184398,112.33768463134766,0.929885361706866,98.91322326660156,0.9137087071281725,126.34314727783203,1.0,71839.0,6.876761930812991e-05,-0.001306580194867932,-0.0014315840154698835,-0.00035632497152636195,-0.0013162906847697174,103.0,0.8796140551567078,0.7986701745105954,0.453319227717535,0.9145756152210722,0.35813379287719727,0.05464105208213981,0.2110135163351383,0.6430976836251814,-0.015451397762415317
228,7.5670785701324625,146.2559814453125,0.9456860544707274,111.70875549316406,0.9246793437880612,98.33639526367188,0.9083802712387502,126.83284759521484,1.0,70822.0,0.0052102685629437095,-0.0014750592522037045,-0.0016800374245493353,-0.0001843683662794811,-0.0015793888838420214,103.0,0.8607650995254517,0.7965227377556879,0.45265595436446304,0.9073461962231276,0.35116538405418396,0.053014579649985905,0.19461466775860609,0.634936423240224,-0.02620432254132865
229,7.600413718018509,146.5306854248047,0.94746228078261,112.02135467529297,0.9272669118378846,98.72541809082031,0.9119738609803268,126.20795440673828,1.0,70212.0,0.005537887495902616,-0.0010828673074828842,-0.0013263580477135312,-1.8735048760041177e-06,-0.0012740783493233653,103.0,0.8615097999572754,0.7981684042613798,0.44422605822366545,0.8995310938580983,0.3525254726409912,0.06248238399057063,0.194596365293682,0.6339332224618399,-0.017236421240687274
230,7.633748865904555,146.36627197265625,0.9463991891584065,111.58182525634766,0.9236286672536382,98.02230834960938,0.9054789003330583,126.019775390625,1.0,70093.0,0.00423229406932446,-0.00030816603463439113,-0.0005437546921617501,0.0001739044006368221,-0.0005416773482246734,103.0,0.8484643697738647,0.7925375334674408,0.44369623214871673,0.9017728489090161,0.3485969007015228,0.05196325648414986,0.17906210320574095,0.6281218987406385,-0.021528844985644495
231,7.667084013790601,145.17372131347656,0.9386881983565855,110.96796417236328,0.9185473765185496,97.67591094970703,0.9022790620307086,128.79434204101562,1.0,70161.0,0.005460324444602593,0.0005351819136603345,0.0003332712117250078,0.00032163389490134984,0.00031192263822059574,103.0,0.9481090903282166,0.8582355819709906,0.6486509599350067,0.9026476945244957,0.3520130217075348,0.05605444627418691,0.37059049899516827,0.703823777371416,-0.025059107575812856
232,7.700419161676647,144.8443603515625,0.9365585619103274,110.44288635253906,0.9142009972958176,97.13554382324219,0.8972874326793329,128.41627502441406,1.0,70564.0,0.007836341935519076,0.0011189261394700107,0.0009458582187241121,0.0004188484406899706,0.0009378745572093361,103.0,0.940272331237793,0.8630841033199176,0.6580267558528428,0.9114558441726192,0.35212814807891846,0.05775068135728956,0.34035768947338585,0.6965163323509426,-0.03652402663700098
233,7.733754309562693,144.45965576171875,0.9340710755038849,110.33151245117188,0.9132790897373932,97.05916595458984,0.89658189381087,128.59539794921875,1.0,70837.0,0.006531395172136356,0.0012157735310402693,0.0010472743561432624,0.0004458713088135153,0.0010767406410795168,103.0,0.930136501789093,0.8469067483565557,0.6148481725651849,0.9135542945576477,0.3528294265270233,0.05856332215630642,0.3267219108657905,0.6878897257467335,-0.03510925504938951
234,7.767089457448739,144.24964904785156,0.9327131794459812,110.0765609741211,0.9111687057889163,96.81768035888672,0.8943511759740316,128.57986450195312,1.0,71078.0,0.007646226033631853,0.0007705664652224627,0.0005864084290807488,0.0003919342975338936,0.0006533976496608706,103.0,0.91881263256073,0.8050217132352251,0.48556515377472637,0.9170644853301679,0.35357075929641724,0.052950739297602765,0.31547032837164807,0.6753294481739407,-0.03877517646297023
235,7.800424605334785,144.2134552001953,0.9324791512944628,110.37887573242188,0.9136711435887906,97.00174713134766,0.8960514887040822,127.92024230957031,1.0,71134.0,0.002425454551971573,-9.149060806814262e-05,-0.0002875314286987339,0.0002567822173452704,-0.00020545350989565662,103.0,0.9160459041595459,0.7818624005398261,0.40838417634323954,0.9177870100379325,0.3585289716720581,0.055569891363249295,0.3175415413163888,0.6700010817930095,-0.03557288405569475
236,7.833759753220831,143.78070068359375,0.9296809757442044,109.56180572509766,0.9069077725811555,96.1340560913086,0.8880362119574746,128.4409637451172,1.0,70331.0,0.006293616111388567,-0.0011150507280655983,-0.0012918486668052286,5.694154687254595e-05,-0.0012233747635714892,103.0,0.9005826115608215,0.7794808358571137,0.41156815628954513,0.9110941264865144,0.356454461812973,0.055379951809726144,0.2953605095903656,0.661253129690145,-0.04152927271471298
237,7.867094901106878,143.96697998046875,0.9308854511547172,109.9375991821289,0.9100184369665337,96.59073638916016,0.8922547860847799,127.79324340820312,1.0,69947.0,0.005383253098360574,-0.002001066772357937,-0.0021163784183978194,-0.00017933814664109005,-0.002082482738316473,103.0,0.8990042209625244,0.7783702898861519,0.40124665818405364,0.9061196466046584,0.3587552309036255,0.06317848537451097,0.29655310449340216,0.6596271764566202,-0.03235528946690053
238,7.900430048992924,144.08448791503906,0.931645253344786,109.71395874023438,0.9081672329481686,96.06194305419922,0.8873700693758433,127.73509979248047,1.0,69168.0,0.0034499166043579776,-0.0025013444370919767,-0.0025275653375266345,-0.00041196204551196695,-0.0025307553692699588,103.0,0.8888095617294312,0.7742115814634899,0.40180430256766136,0.9000390370852309,0.3550437390804291,0.05690305790500976,0.2835993523016424,0.6546600879205826,-0.036850796753461215
239,7.933765196878969,144.54318237304688,0.9346111556478189,110.268310546875,0.9127559302488341,96.55363464355469,0.8919120595322543,126.79256439208984,1.0,69152.0,0.0005141239235142703,-0.002494795382007803,-0.0024363700533591563,-0.0005981029327938883,-0.0024628946223995713,103.0,0.8886743783950806,0.7756536325775104,0.3950572651550208,0.8998308392973324,0.35574015974998474,0.055562784645413144,0.2857907218880148,0.655567419948609,-0.02847283305503466
240,7.967100344765016,144.4925079345703,0.934283496503134,109.91925811767578,0.9098666171439243,96.10111999511719,0.8877319654990634,126.96780395507812,1.0,68057.0,0.001857478103146265,-0.002021889257455704,-0.0019120618556009912,-0.0006983980723300428,-0.0019406499409042382,103.0,0.8773247003555298,0.7752668106636104,0.39804869447668867,0.8881247553177607,0.35200196504592896,0.05895863238940363,0.2732562410920258,0.6496024042577051,-0.03085090679499706
241,8.000435492651063,143.06561279296875,0.9250572424841886,108.81439971923828,0.9007210516568176,95.41032409667969,0.8813507537014302,129.11248779296875,1.0,69054.0,0.008542776563580073,-0.0012622313674393027,-0.0011430823656768975,-0.00068432942328445,-0.0011557682338912366,103.0,0.9540676474571228,0.7727092806595804,0.3934022648941408,0.8972946282387796,0.35668474435806274,0.06430780425686738,0.3468589799287514,0.6821413153008483,-0.044238733435165004
242,8.033770640537108,143.13392639160156,0.9254989558207601,109.16105651855469,0.9035905347183417,95.63912963867188,0.8834643398232165,128.76339721679688,1.0,69420.0,0.0037040031398909157,-0.0004613409944878382,-0.0003631008457480889,-0.0005461759268946569,-0.00035501089728615055,103.0,0.9513267278671265,0.767094017094017,0.38431287813310283,0.9020504690870345,0.36037805676460266,0.06099430858390291,0.3478392394122731,0.6810592438946153,-0.0422059717181639
243,8.067105788423154,143.15206909179688,0.9256162658849066,109.08684539794922,0.9029762454444141,95.54439544677734,0.8825892348257434,128.42221069335938,1.0,69073.0,0.0042455599698685564,0.00016239268466724336,0.00022974106137659892,-0.0002924439163086068,0.0002502504973062407,103.0,0.9434667229652405,0.7693503008893972,0.3897036468663588,0.8999856675657012,0.36139482259750366,0.06651552463224276,0.32969467085547177,0.675033191149125,-0.04441274457656494
244,8.1004409363092,143.35009765625,0.9268967116481468,109.43368530273438,0.9058472441780441,96.06038665771484,0.8873556921978225,128.1532440185547,1.0,69508.0,0.005177287919520296,0.0004911005807148522,0.0005330931665915911,4.624415684004328e-05,0.0005481734887941313,103.0,0.9410555958747864,0.7664873108131438,0.38260344133049434,0.9056534938565974,0.36319687962532043,0.06324512371496697,0.33094032341600965,0.6746302060201326,-0.04140414618674657
245,8.133776084195246,143.69924926757812,0.9291543137404923,109.78022766113281,0.9087157799445019,96.50594329833984,0.8914715117880966,128.1795196533203,1.0,68883.0,0.006123983361635693,0.0005353050040756945,0.0005628622472193286,0.00042378340580996935,0.0005563176097077072,103.0,0.9400955438613892,0.7649589400384227,0.3776258293047631,0.8975100652777235,0.36477407813072205,0.0735123584672113,0.33057503302701685,0.6723687032236814,-0.03905923680135941
246,8.167111232081293,144.1467742919922,0.9320479948770365,109.98924255371094,0.9104459196534068,96.5779800415039,0.8921369496060996,128.03155517578125,1.0,69252.0,0.005277707873628773,0.00041218301854532277,0.0004343067238361419,0.0007835585018719164,0.00040054666567279797,103.0,0.9337640404701233,0.761965960068542,0.37835730376018023,0.9028473091364205,0.3647949695587158,0.06393408427200667,0.31760815572113443,0.669126379791945,-0.04139160129584777
247,8.200446379967339,144.4874267578125,0.9342506417921494,110.44518280029297,0.914220006350146,97.0174560546875,0.8961965995351845,128.21678161621094,1.0,69186.0,0.0031616891536448144,0.0002871151746114564,0.00031055616552889796,0.001067080778579106,0.000258292735215431,103.0,0.9345802068710327,0.760134516617042,0.37748966553927094,0.9019868585732165,0.36568546295166016,0.06433823529411764,0.31825802908102796,0.6690294432103133,-0.04332540932914526
248,8.233781527853385,144.93667602539062,0.9371554718246132,110.89779663085938,0.9179665583369611,97.60665893554688,0.901639348085145,128.57589721679688,1.0,68945.0,0.004463550715364167,0.00030185243019200606,0.00033618251708883825,0.0012236968825705612,0.00028416546160128477,103.0,0.9359868764877319,0.7618633210046656,0.3812459206613968,0.8988449103045474,0.3648410737514496,0.06570713391739674,0.31861628834578287,0.6695794995652392,-0.04274532006329395
249,8.26711667573943,145.46910095214844,0.940598112756709,111.45407104492188,0.9225711701947387,98.2662124633789,0.9077319591769192,129.0867919921875,1.0,68315.0,0.004836343539977556,0.0005162874735548479,0.0005777804658431836,0.001218334710575468,0.0005435541268755379,103.0,0.9367919564247131,0.7653468003610725,0.38468857498353215,0.8906315185648728,0.36317476630210876,0.07335992907801418,0.3174412647295616,0.6690180134718229,-0.04303543277164612
250,8.300451823625476,146.4386749267578,0.946867344124239,112.2718505859375,0.9293404144317842,99.07799530029297,0.9152307851365827,128.9526824951172,1.0,68037.0,0.004215350703351967,0.0008845717944008066,0.000992138059176934,0.0010389406844503706,0.0009811789556407274,103.0,0.9459561705589294,0.7650249129150315,0.39109602128253745,0.8870071964956195,0.36227408051490784,0.06770181476846057,0.32022281993621116,0.6727062988470273,-0.04140597214460051
251,8.333786971511524,146.388916015625,0.9465456047472991,112.4616928100586,0.9309118506405987,99.49337768554688,0.9190678707117963,130.29197692871094,1.0,66997.0,0.0057048428801291795,0.0012717906107136163,0.0014350072840638144,0.0006999680123622701,0.0014370854126423275,103.0,0.9567853808403015,0.7650243045708515,0.39251011239309225,0.8734485815602837,0.36101239919662476,0.07575876095118898,0.4060032538770393,0.6912804551474633,-0.04584219004039821
252,8.36712211939757,146.9905242919922,0.9504355827953241,113.06809997558594,0.9359314408903756,100.00890350341797,0.9238300290257419,130.25637817382812,1.0,67497.0,0.002898827930048642,0.001502907713527815,0.0017110036451860355,0.0002407734713350885,0.0017059663020691058,103.0,0.9570896625518799,0.7638067864744605,0.3928767204468347,0.8799671464330413,0.36042970418930054,0.06937056737588652,0.4028771649110331,0.6915099151349269,-0.04490674584447389
253,8.400457267283615,147.75819396972656,0.9553993080494936,113.81582641601562,0.9421208142408988,100.92173767089844,0.932262314411316,130.3977813720703,1.0,66374.0,0.004237925003356735,0.0014278476086530764,0.0016506536814911686,-0.00027692929100249394,0.0016235261322914694,103.0,0.9642317295074463,0.7662839867016201,0.3981830234730467,0.8763169707691901,0.3597647249698639,0.07949354387262021,0.3868532859252117,0.6889664198826088,-0.038254442528774524
254,8.43379241516966,148.24664306640625,0.9585576028042385,114.3906478881836,0.9468789510524049,101.48722076416016,0.9374859519491847,130.1573944091797,1.0,66831.0,0.0022164555245831052,0.0009845070929337205,0.0011881656187994194,-0.0007805210590258796,0.0011401231657051656,103.0,0.9629519581794739,0.7641114652381878,0.3980936990318864,0.8823506112856804,0.35995614528656006,0.07175675318845555,0.38809833759782136,0.6896988696019175,-0.03706330677372495
255,8.467127563055707,148.64874267578125,0.9611575647978357,114.82928466796875,0.950509806735135,102.06824493408203,0.942853149838173,130.12017822265625,1.0,67137.0,0.003385648357475013,0.0002405949314153069,0.0004081703355555842,-0.0011949234916857963,0.0003591849274589471,103.0,0.9629427194595337,0.7673563012943682,0.4034437046635983,0.883242119665316,0.3602007329463959,0.07427774561911277,0.37180690230424357,0.6866838812855477,-0.03431653325007731
256,8.500462710941754,149.07684326171875,0.9639256481953904,115.3167724609375,0.9545450311051228,102.54415893554688,0.947249394876216,129.88735961914062,1.0,67210.0,0.0017197831435663002,-0.0006051253821972247,-0.00046384925940644864,-0.0014574371380102382,-0.0004889996963623912,103.0,0.9605278372764587,0.7642463919059663,0.40194911471507216,0.8842024943429985,0.36085283756256104,0.07509340630426775,0.3706293706293706,0.6850921668174992,-0.032509767823914744
257,8.5337978588278,149.55496215820312,0.9670171482374128,115.71934509277344,0.9578773625359914,103.04796600341797,0.9519033014968282,129.6306915283203,1.0,66787.0,0.0031536673940676385,-0.0012753171798756068,-0.001133120463119611,-0.0015258062571435246,-0.0011218894592418802,103.0,0.9586166739463806,0.7629528700695246,0.40176980550107055,0.8786375835394411,0.362541139125824,0.08427616692101247,0.36857472262566066,0.6824755003182703,-0.028960451937881652
258,8.567133006713846,149.65841674804688,0.967686081992596,116.0329818725586,0.9604735193944149,103.10919189453125,0.9524688743086767,129.60728454589844,1.0,68357.0,-0.0033186902815161567,-0.0015137956191322995,-0.0013472845514766636,-0.0013890962629742167,-0.0013120633721306289,103.0,0.9521659016609192,0.7665150118739364,0.4031920651871791,0.889543887045351,0.3627459704875946,0.07351161428850284,0.3466945594452653,0.6789215313929098,-0.03033873715084366
259,8.600468154599891,149.8925018310547,0.9691996679421928,116.31031036376953,0.962769131104836,103.427734375,0.9554114034102713,129.5654754638672,1.0,68284.0,-0.003543215786769194,-0.001196601232818856,-0.001003070480611197,-0.0010668259390725857,-0.0009737566923905644,103.0,0.9516192674636841,0.7650401265303731,0.4025833284517603,0.8885939228316742,0.3629074692726135,0.07602316351096362,0.3457764630074395,0.6779044286117294,-0.028769973571082793
260,8.633803302485937,150.0633087158203,0.9703040992778154,116.49837493896484,0.9643258526636221,103.88130950927734,0.9596012936578978,129.5207977294922,1.0,68487.0,0.00034350947081024374,-0.00039860488093974465,-0.00019802266762202156,-0.0006089069766193209,-0.00020293351906542446,103.0,0.9504819512367249,0.7637167150943488,0.4006015740213471,0.8912356041382002,0.3630550503730774,0.07470882946190384,0.3453356111378802,0.6774775403417224,-0.025814351393467425
261,8.667138450371983,149.93479919433594,0.969473161212011,116.17729187011719,0.9616680584728913,103.63359832763672,0.9573130671089762,130.9637908935547,1.0,66788.0,0.0037396492677429505,0.0006271374877410834,0.000801364129463842,-8.527821571204731e-05,0.0007569132644945852,103.0,0.9655472636222839,0.7739663811862411,0.4076780259926933,0.866735014340034,0.3582361042499542,0.0805896933438883,0.32886147212074024,0.6790580356319451,-0.02688666685146998
262,8.70047359825803,150.0644989013672,0.9703117949758838,116.38865661621094,0.9634176493071555,103.81379699707031,0.9589776483230633,130.9169464111328,1.0,67414.0,0.002152971550764826,0.0015528698461521326,0.0016641498220985166,0.00042547233722900604,0.001603067962874001,103.0,0.9665505290031433,0.7717585862481582,0.40582074939923457,0.8748588707061007,0.35776305198669434,0.06922148539392917,0.32991663452695286,0.6808972387427794,-0.027715268940486586
