frame_index,time_s,R_skin_raw,R_normalized,G_skin_raw,G_normalized,B_skin_raw,B_normalized,frame_luminance,face_detected,skin_pixel_count,BVP_detrended,BVP_butterworth,BVP_cheby1,BVP_cheby2,BVP_elliptic,gt_bpm,bisenet_conf,vote_mean,highconf_pct,roi_coverage,green_cv,hair_rej_frac,clust_agree,quality_score,BVP_pca,BVP_ham_tight,BVP_ham_adapt,BVP_el_tight,BVP_el_adapt,f_p1_adapt,f_p2_adapt,N_ham_mid
1,0,155.374877929688,1.00408772355485,120.881980895996,0.999581138276761,108.435073852539,1.00025052260475,128.131149291992,1,67591,-0.00120674125621537,-0.000470743748164794,-0.00065403402368826,0.000273392072242204,-0.000645461405142236,NaN,0.969325602054596,0.766423537650476,0.370315574558743,0.882481199080844,0.357348650693893,0.0658032170461667,0.387329674069033,0.692553528130164,-0.000736926680911083,-1.34536941274134e-08,-9.56221358140163e-09,6.06238469888602e-05,-7.3078329775242e-07,0.854215155467523,3.2357453557067,61
2,0.0333351478860461,155.29621887207,1.00357940074777,120.877418518066,0.999543411670278,108.547119140625,1.00128407525503,128.084014892578,1,67872,0.000278214497788837,0.000151702961972981,-0.000108636806847682,0.000399212172255794,-0.000140182443371531,NaN,0.969478189945221,0.76538189533239,0.369224422442244,0.886149989555045,0.358186632394791,0.0610246500940046,0.387862446958982,0.693254471929539,-0.00280899876619941,0.000528650396236564,0.000521100888445862,0.000713638747782512,0.000522502297571745,0.854215155467523,3.2357453557067,61
3,0.0666702957720922,155.296417236328,1.00358068264815,120.851821899414,0.999331751528552,108.537002563477,1.00119075571164,128.15055847168,1,67833,0.000800573094144913,0.000583890319928782,0.00026921372024115,0.000486930357210254,0.000211334090272593,NaN,0.96935623884201,0.76537476842638,0.368625890053514,0.885640797994569,0.358353853225708,0.0618863588886568,0.388144413486061,0.693141078670806,-0.00167499996092826,0.000910005841974124,0.000895182592612245,0.00117350115208817,0.000856251864474016,0.854215155467523,3.2357453557067,61
4,0.100005443658138,155.284713745117,1.00350505052535,120.893676757812,0.999677852135857,108.545356750488,1.0012678182305,128.193542480469,1,67913,-0.000255894406035129,0.000703484706525805,0.000388988807288803,0.000525560870137485,0.000326637962750418,NaN,0.969215333461761,0.76546954682216,0.369605230221018,0.886685293503238,0.358167231082916,0.0610115939001462,0.388143654381341,0.693264618582117,-0.00199821062300489,0.00104133658026379,0.00101972346345511,0.00131792940724485,0.000882959671411697,0.854215155467523,3.2357453557067,61
5,0.133340591544184,155.321029663086,1.00373973690379,120.850456237793,0.999320458781795,108.458160400391,1.00046348258839,128.170837402344,1,67947,-0.000323959142548125,0.000505696806164553,0.000254745472959201,0.000513487127380361,0.000200831252454165,NaN,0.968800604343414,0.764816695365505,0.367698353128173,0.88131833923499,0.358551472425461,0.0655278415502549,0.385800697602543,0.691839175031423,-0.00339881805453796,0.000895332958206348,0.000867511800230959,0.00112142138327237,0.000580030292305289,0.854215155467523,3.2357453557067,61
6,0.16667573943023,155.413421630859,1.00433680666071,120.864334106445,0.999435215800514,108.376449584961,0.999709747814835,127.81876373291,1,67985,-0.00141913397770188,9.32196342500538e-05,-4.72234435834233e-05,0.000456892369453201,-9.94291800234734e-05,NaN,0.96888929605484,0.768017454830722,0.373214679708759,0.88181122482068,0.357530653476715,0.0650608973111794,0.383908215047437,0.692197714419553,-0.00157032791410411,0.00052753986302128,0.000494127687317522,0.000660624588067887,2.57143857277755e-05,0.854215155467523,3.2357453557067,61
7,0.200010887316277,155.457702636719,1.00462296627005,120.826942443848,0.999126021656073,108.415962219238,1.00007422889721,127.92064666748,1,67663,0.000597242965368672,-0.000373953388914508,-0.000389385806216996,0.000367837108948542,-0.000460652333504215,NaN,0.968670666217804,0.767238618841415,0.373601525205799,0.877634668015617,0.357242226600647,0.0691077473831667,0.38464153229978,0.691486457201383,-0.00076269472876991,5.80069428144812e-05,1.97348186468419e-05,8.74242524626923e-05,-0.000626456760314397,0.854215155467523,3.2357453557067,61
8,0.233346035202323,155.464233398438,1.00466517037508,120.978561401367,1.00037976889796,108.371574401855,0.999664777084648,127.825859069824,1,67818,-0.0041794191932325,-0.000741325109438522,-0.000650624645062982,0.000257309490690814,-0.000761154048215742,NaN,0.968325853347778,0.766325557619904,0.372629685334277,0.879645122378303,0.357235580682755,0.0675901786061714,0.383600224129287,0.691252191109796,-0.00198020483463374,-0.000367336768557064,-0.000409436074112435,-0.000420723563829842,-0.00119574602623318,0.854215155467523,3.2357453557067,61
9,0.266681183088369,155.53581237793,1.00512773919914,120.96508026123,1.00026829245371,108.548194885254,1.0012939983739,127.966567993164,1,67516,-0.000243135998799743,-0.000907534956836022,-0.000750149419248068,0.000134953244776458,-0.000901227882581899,NaN,0.968028426170349,0.765581491794538,0.372356182238284,0.875727979039392,0.357334107160568,0.0732453921683075,0.383568339356597,0.690117810025885,-0.000124763814161419,-0.000623536251217227,-0.000667791445408885,-0.0007180694008339,-0.00153055488191475,0.854215155467523,3.2357453557067,61
10,0.300016330974415,155.53092956543,1.00509618472809,121.025733947754,1.00076984182084,108.555778503418,1.00136395284308,127.902816772461,1,67805,-0.00176736102902206,-0.000841965005394387,-0.000659170336785902,2.20684489319189e-06,-0.000830876239844155,NaN,0.968002796173096,0.7645503035666,0.370680628272251,0.879476503625303,0.356733798980713,0.0685629791042453,0.384307941892191,0.690802271478353,0.000130373337840682,-0.000646903465661329,-0.000690734487644638,-0.000737547261431923,-0.00155582524613751,0.854215155467523,3.2357453557067,61
11,0.333351478860461,155.162643432617,1.00271618874908,120.622207641602,0.99743305596212,108.191062927246,0.997999663663323,128.350067138672,1,67876,9.04659185132772e-05,-0.000575467564666508,-0.000395490901706765,-0.000142179251252744,-0.000555649517200854,NaN,0.958742380142212,0.764094328874222,0.372031351287642,0.880397421430146,0.357650279998779,0.0692763661361661,0.429459602805115,0.697312162789634,-0.00263391348792436,-0.000455525487685964,-0.000495265168270348,-0.000510495221353489,-0.00129447131146139,0.854215155467523,3.2357453557067,61
12,0.366686626746507,155.124389648438,1.00246897918994,120.666191101074,0.997796758113252,108.180114746094,0.997898673056408,128.270751953125,1,67829,-0.00154994071732759,-0.000180082009962581,-1.27039378029993e-05,-0.000302629799384484,-0.000138095577663033,NaN,0.959591448307037,0.764289610638517,0.372790399386693,0.879787799784687,0.357520878314972,0.0685629791042453,0.429609753940055,0.697707658335795,-0.00310350896875817,-0.000142867598330798,-0.000173842241328181,-0.000153875986218737,-0.000857271979808846,0.854215155467523,3.2357453557067,61
13,0.400021774632553,155.173202514648,1.00278442529273,120.644470214844,0.997617146660646,108.177680969238,0.99787622287968,128.326034545898,1,67532,-0.000643389266345523,0.000247603653052909,0.000408426140786235,-0.000478315523283974,0.000319622737970639,NaN,0.960417509078979,0.763573811921262,0.371675650062193,0.875935509812314,0.357954740524292,0.0734658936145375,0.428478351003968,0.696760266876465,-0.00301933310602886,0.000154242870130103,0.000137380562940613,0.000170966693920637,-0.000404315480538494,0.854215155467523,3.2357453557067,61
14,0.433356922518599,155.168334960938,1.0027529694294,120.683303833008,0.997938264431551,108.051902770996,0.996715992116199,128.138763427734,1,68117,-0.00387915765453425,0.000598423104909706,0.000768987328555546,-0.000661023856500013,0.00069658573375142,NaN,0.960093140602112,0.76471854798851,0.374370568286918,0.88352335369729,0.356839418411255,0.0653073401040248,0.428644831686657,0.698246786668917,-0.00162356569581381,0.000303429597435759,0.000306107191088036,0.000315689487198883,-8.91860333545246e-05,0.854215155467523,3.2357453557067,61
15,0.466692070404645,155.183166503906,1.00284881613521,120.625610351562,0.997461193197056,108.228874206543,0.998348450735009,128.413177490234,1,68081,0.000834094480541447,0.000769518246262718,0.000970483627024582,-0.000828771342949461,0.000889605525822611,NaN,0.961195707321167,0.766249026894435,0.376874605249629,0.880782964189609,0.35756915807724,0.0691109501138481,0.423392723373628,0.697169524865689,-0.000925110053478395,0.000224969878396493,0.000252006356306186,0.000198412555682408,-5.4379644077748e-06,0.854215155467523,3.2357453557067,61
16,0.500027218290691,155.163040161133,1.00271875254985,120.634712219238,0.99753645714611,108.174819946289,0.997849831606096,128.248092651367,1,68473,-0.000480171071180313,0.00069900629473572,0.000947670123455228,-0.000950645215128237,0.000845726590719251,NaN,0.961082994937897,0.76561077602364,0.376776247572036,0.885854377975574,0.358175247907639,0.0640654108880149,0.42307186774349,0.697756811745818,-0.00372846037301626,-7.59764455326227e-05,-2.11008752038002e-05,-0.000164350684487824,-0.000152886240615234,0.854215155467523,3.2357453557067,61
17,0.533362366176737,155.130737304688,1.00251000000231,120.643135070801,0.997606106265772,108.19800567627,0.99806370648722,128.256011962891,1,67769,-0.000534903418731802,0.00040700834546553,0.000706728300781405,-0.000988058190332964,0.00059390671492181,NaN,0.961323618888855,0.765226972017688,0.376056899172188,0.876746532808942,0.357743620872498,0.0733414406955082,0.423172837137924,0.696276236042055,-0.00253385540309416,-0.000504846581989222,-0.000420521385137349,-0.000657529254697097,-0.000434356435308853,0.854215155467523,3.2357453557067,61
18,0.566697514062784,155.061431884766,1.00206212372883,120.681144714355,0.99792041053584,108.156723022461,0.997682898003586,128.175704956055,1,67923,-0.00276481990184191,1.63607781794806e-05,0.000347348382792011,-0.000906984432023355,0.000247671443516706,NaN,0.961715459823608,0.765734729031403,0.377559883986279,0.878738873939143,0.357862025499344,0.0707281101221279,0.422478394652769,0.696754992073196,-0.00363895325363378,-0.000904048013007812,-0.000790853694678175,-0.0011017807536527,-0.000686663961403912,0.854215155467523,3.2357453557067,61
19,0.60003266194883,155.121170043945,1.00244817296059,120.631042480469,0.9975061118322,108.151008605957,0.997630185833147,128.234497070312,1,67843,-0.00107327533708229,-0.000271876170060079,4.73069249348082e-05,-0.000685832640626952,-1.75823219450521e-05,NaN,0.961425185203552,0.765998948552786,0.377386023613343,0.877703891533844,0.358015447854996,0.0722417718898779,0.422755479563109,0.696548498421687,-0.00348403316010092,-0.00110307038291677,-0.000963824186115767,-0.00131217682393571,-0.000736770892456421,0.854215155467523,3.2357453557067,61
20,0.633367809834876,155.102005004883,1.00232432166172,120.715087890625,0.998201088917521,108.096160888672,0.99712424752436,128.006576538086,1,68153,-0.00440506038691049,-0.00025040748867284,3.87067267616371e-06,-0.00032771588106508,-2.35703936244983e-05,NaN,0.96150940656662,0.765879711824865,0.377562249644183,0.881714448354378,0.358406752347946,0.0679336576278203,0.4217862749989,0.697041163785957,-0.00332367443565597,-0.000976827869843104,-0.000816383133692976,-0.00116115497528779,-0.000463523664530324,0.854215155467523,3.2357453557067,61
21,0.666702957720922,155.095657348633,1.00228330084935,120.590141296387,0.997167897221233,108.042617797852,0.996630343636328,128.269989013672,1,67461,-0.00201286773030454,0.000201149518275524,0.000350075780290984,0.000137239608982432,0.000343805725578173,NaN,0.960761725902557,0.766067308024884,0.377062302663761,0.872761850548541,0.35919713973999,0.076743945352929,0.367145461822386,0.684553954188625,-0.00407004903576035,-0.000493087599940527,-0.000317951983288742,-0.000625922851121172,0.000154584202432261,0.854215155467523,3.2357453557067,61
22,0.700038105606968,155.123901367188,1.00246582374283,120.622970581055,0.997439364759191,107.988212585449,0.996128487177855,128.038635253906,1,67974,-0.00361576879942352,0.00104511819867691,0.00108189931108159,0.000648841617839463,0.00107250689531377,NaN,0.960099220275879,0.766749051107776,0.37860064142172,0.879398675222521,0.35884553194046,0.0694473193955703,0.367361049813164,0.685735254149867,-0.00329195467587281,0.000267518147861114,0.000449653673501701,0.000195456416103503,0.00102176369544885,0.854215155467523,3.2357453557067,61
23,0.733373253493014,155.059722900391,1.00205107966396,120.533172607422,0.996696819343956,108.090713500977,0.997073998539457,128.275390625,1,67691,9.782886413498e-05,0.00207445995029116,0.00203317101002345,0.00112850500931191,0.002008197036734,NaN,0.960240542888641,0.766399275137512,0.376830006943316,0.875737424963776,0.35909429192543,0.0737166218174291,0.367729831144465,0.685091297487767,-0.00402701272660409,0.00112710677450227,0.0013079389450314,0.00110634780163009,0.00194523731466436,0.854215155467523,3.2357453557067,61
24,0.76670840137906,155.105285644531,1.00234552232195,120.517883300781,0.996570391050657,108.058731079102,0.996778979289152,128.177581787109,1,67822,0.000299047504757372,0.00297312240430502,0.00291647257603191,0.00148958574645306,0.00288457489591813,NaN,0.95952296257019,0.766324594772591,0.376500250656129,0.877432208652453,0.359158396720886,0.0722805837300766,0.367520863436643,0.685084938887582,-0.00319192000923967,0.00185840729225289,0.00202953676173993,0.00186587652468211,0.00268782687824615,0.854215155467523,3.2357453557067,61
25,0.800043549265106,155.023773193359,1.00181875987085,120.543151855469,0.996779338409642,108.026458740234,0.996481285723125,128.274490356445,1,67387,-0.00152315234835243,0.00342630168833992,0.00341879017515876,0.00165684006086353,0.00340593023329112,NaN,0.959984600543976,0.766042906396387,0.375844005520353,0.871804491823639,0.359184205532074,0.0792020285655144,0.367014409307433,0.683935288706276,-0.00449867779654816,0.00225081449511066,0.00240428461275741,0.00225983738073187,0.00303798141247788,0.854215155467523,3.2357453557067,61
26,0.833378697151152,155.03971862793,1.00192180494037,120.532279968262,0.996689438051383,108.059646606445,0.996787424496699,128.255249023438,1,67384,-0.000534711062870064,0.00323587440377413,0.00331511093257708,0.00158254168658242,0.0033470840256226,NaN,0.959574401378632,0.765587280857968,0.373708892318651,0.87176567998344,0.359453946352005,0.0790985303249845,0.369390359729313,0.684233363610117,-0.00470826298617986,0.00217399897197551,0.00230277757111428,0.0021650643190443,0.00287415334245659,0.854215155467523,3.2357453557067,61
27,0.866713845037198,155.058135986328,1.00204082446087,120.536170959473,0.996721612916444,108.040328979492,0.99660923061746,128.283630371094,1,67105,-0.000828691181076535,0.00239443696822505,0.00255409692622707,0.00125881273515058,0.00263758904442298,NaN,0.959821939468384,0.765472021458908,0.373489307801207,0.86815617884496,0.359076589345932,0.0831478989857172,0.369346546457045,0.683615534612572,-0.00366971836695444,0.00161879094242381,0.00171714669191207,0.0015866789625928,0.00220264650052255,0.854215155467523,3.2357453557067,61
28,0.900048992923244,155.126678466797,1.00248377034824,120.52075958252,0.996594175215614,107.95336151123,0.995807006277237,128.107147216797,1,67387,-0.00140309552144269,0.00108881340641438,0.00128133984199657,0.000724236326614264,0.00139796448363837,NaN,0.960320591926575,0.766018173633886,0.375294938192826,0.871804491823639,0.359051436185837,0.0793055268060443,0.368409337112499,0.684276765841954,-0.00410884374461372,0.00070216918325609,0.000765953863872979,0.000658079180069296,0.00115850562071595,0.854215155467523,3.2357453557067,61
29,0.933384140809291,155.269790649414,1.0034086121732,120.727714538574,0.998305499509043,107.779960632324,0.99420748396786,127.735641479492,1,67105,-0.00888700331526515,-0.000367571449297075,-0.000208220530441124,5.78258427317345e-05,-9.29029305330009e-05,NaN,0.960890233516693,0.767453990015647,0.380210118471053,0.86815617884496,0.35962587594986,0.0847779962740633,0.365352805305119,0.683219438039476,-0.00138670239250724,-0.00036526217505387,-0.000338468126120724,-0.000396218455836405,-3.08098677683903e-05,0.854215155467523,3.2357453557067,61
30,0.966719288695337,155.227493286133,1.00313527156772,120.635955810547,0.997546740485336,107.809906005859,0.994483712631372,127.792259216309,1,67644,-0.00621038330541912,-0.00164387452256503,-0.00156828155945198,-0.000630350662120663,-0.00148102938486896,NaN,0.960996270179749,0.76757731653953,0.380994618887115,0.875129372800662,0.359188467264175,0.0753725936659077,0.366418307610431,0.684988577388384,-0.00211165584485258,-0.00133874754614641,-0.00134963421522942,-0.00132457308350199,-0.00110899736021905,0.854215155467523,3.2357453557067,61
31,1.00005443658138,155.201522827148,1.00296744122482,120.676887512207,0.997885207448185,107.813049316406,0.99451270784395,127.785781860352,1,67458,-0.00743626935774597,-0.0024949352099763,-0.00251051864951735,-0.00122286352783158,-0.00245371536456875,NaN,0.960321485996246,0.764767213179559,0.376115508909247,0.872723038708342,0.358872205018997,0.0767827571931277,0.392377479320466,0.689224068848166,-0.00193421090972157,-0.0020067444003982,-0.0020544604061257,-0.00191880550138213,-0.00186155870727803,0.854215155467523,3.2357453557067,61
32,1.03338958446743,155.194976806641,1.00292513851207,120.633651733398,0.997527687918182,107.821723937988,0.994592726185457,127.804878234863,1,67507,-0.00616630907437185,-0.00281794111478005,-0.0028857231759197,-0.00161267896127321,-0.00283345821782337,103,0.960089206695557,0.764577500604876,0.373916779000696,0.873356965431588,0.359777182340622,0.0757995239080936,0.393188854489164,0.689447648867402,-0.00414923291322712,-0.00224507573745565,-0.00232748393161462,-0.00206755886341292,-0.00216945098124248,0.854215155467523,3.2357453557067,61
33,1.06672473235347,155.135116577148,1.00253830041853,120.669845581055,0.997826977251221,107.799301147461,0.994385888977288,127.984390258789,1,66937,-0.00795350884447674,-0.0026515382367795,-0.00271280431955074,-0.00172742414707059,-0.00262995012409349,103,0.960764229297638,0.763738042238722,0.373664789279472,0.865982715793831,0.358915328979492,0.0843381287518112,0.391188729701062,0.687682311112076,-0.00308447052553837,-0.00204207858941104,-0.00215610613585177,-0.00177879716333307,-0.00203220407810635,0.854215155467523,3.2357453557067,61
34,1.10005988023952,155.156097412109,1.00267388603633,120.595603942871,0.997213068208261,107.73193359375,0.993764462455297,127.809875488281,1,67640,-0.00695991689495509,-0.00213530596223955,-0.00215336028088414,-0.00154141969983827,-0.00201986350010698,103,0.961608290672302,0.764217425586438,0.375206978119456,0.875077623680397,0.358109980821609,0.0729403850134548,0.391809580130101,0.689937012209231,-0.001684692379567,-0.00148921498340332,-0.00163122871576768,-0.00116696668685215,-0.00155593462505152,0.854215155467523,3.2357453557067,61
35,1.13339502812557,155.11408996582,1.00240241897757,120.636833190918,0.997553995601967,107.762588500977,0.994047236154658,127.84895324707,1,67402,-0.00783729332937208,-0.00145671747754619,-0.00144671800241193,-0.00108373837623496,-0.00127445462505043,103,0.96114706993103,0.763666755684797,0.375463636093884,0.871998551024633,0.357890725135803,0.0764851997516042,0.392599626123854,0.689302411884231,-0.00279775110613695,-0.000743359754072729,-0.000909523961960361,-0.000410359012735628,-0.000911625501922865,0.854215155467523,3.2357453557067,61
36,1.16673017601161,155.282424926758,1.00349025936705,120.802726745605,0.998925780437045,107.994171142578,0.996183451403639,127.903358459473,1,68100,-0.00705904691598774,-0.000802764440979624,-0.000828792178078341,-0.000432385593375767,-0.000655273772541022,103,0.963684141635895,0.765403817914831,0.37798825256975,0.882170060624903,0.357399135828018,0.0655344836520027,0.38697503671072,0.690911288949764,-0.000568609626095003,2.41731628637251e-05,-0.000162410439720251,0.000305688787688298,-0.000279258744400017,0.854215155467523,3.2357453557067,61
37,1.20006532389766,155.241394042969,1.0032251032025,120.78621673584,0.998789258068433,108.058456420898,0.996776445726889,128.067779541016,1,67258,-0.00580073548974253,-0.000319992056250658,-0.000459408026846343,0.000298002383006405,-0.000324266183352771,103,0.964076399803162,0.765098575634125,0.377367748074579,0.871262759728483,0.357246547937393,0.0787994196590497,0.386719795414672,0.688774867015102,-0.000181025272493154,0.000673848024440652,0.00047025536180987,0.000840279681382712,0.000202837212105424,0.854215155467523,3.2357453557067,61
38,1.23340047178371,155.152923583984,1.00265337563014,120.759651184082,0.998569585754427,108.116027832031,0.997307508528127,127.955863952637,1,67698,-0.00473550994747557,-8.31678966226238e-05,-0.000379586744907674,0.00097724098639858,-0.000298433755703847,103,0.963355541229248,0.764862575950053,0.380572542763449,0.876962536919011,0.356824398040771,0.0718819627959998,0.386761795030872,0.689662645456137,-0.001224993982033,0.00112504783506926,0.00090745520643064,0.00112742206342822,0.000467981774369939,0.854215155467523,3.2357453557067,61
39,1.26673561966975,155.146362304688,1.00261097430967,120.734657287598,0.998362909562387,108.086479187012,0.997034939454552,127.980392456055,1,67590,-0.00461351706591012,-7.94442972195579e-05,-0.000512981032431353,0.00148278956866423,-0.000468028535387535,103,0.963293373584747,0.764417813285989,0.381328598905163,0.875563500699518,0.356600075960159,0.0733975853671175,0.386595650244119,0.68928242244347,-0.00106699538480728,0.00135837524599026,0.0011294550413272,0.0011783804596485,0.000523676342484085,0.854215155467523,3.2357453557067,61
40,1.3000707675558,155.112457275391,1.00239186795131,120.72127532959,0.998252253261765,108.102836608887,0.997185827162723,127.725158691406,1,67922,-0.00421252567083369,-0.000220390075110305,-0.000712755996397223,0.00172221449791042,-0.000665865472909236,103,0.962597966194153,0.763836950227221,0.383130649863078,0.879864241670553,0.356205195188522,0.0680993833877403,0.386575778098407,0.689836135871625,-0.00164418982185334,0.00139726958717257,0.00115959438553521,0.00105815488762885,0.000428965380787885,0.854215155467523,3.2357453557067,61
41,1.33340591544184,155.144546508789,1.00259923999075,120.718605041504,0.998230172472017,107.948318481445,0.995760487259,128.217498779297,1,66741,-0.00655918006705172,-0.000387085188700461,-0.000837665450468526,0.00164912684830554,-0.000757629603416101,103,0.957465648651123,0.767024767384366,0.385130579403965,0.864565521529613,0.356598347425461,0.0787216954246334,0.371495782202844,0.684475050812281,-0.00269317136478498,0.00128042917224591,0.00103686308455389,0.000848193456413557,0.000258670223798848,0.854215155467523,3.2357453557067,61
42,1.36674106332789,155.537628173828,1.00513947351807,121.147735595703,1.00177868156044,108.436904907227,1.00026741301985,128.248489379883,1,67768,-0.00677216336636424,-0.000493644333342007,-0.000825237964444918,0.00127233452167356,-0.000709233428748366,103,0.963671565055847,0.770742336599378,0.389977570534766,0.877130764551326,0.354787111282349,0.0687539638368646,0.360538897414709,0.686173503852881,0.00515099682223611,0.00103863767994606,0.000792837609904249,0.000610819880387925,6.95828986801382e-05,0.854215155467523,3.2357453557067,61
43,1.40007621121394,155.510986328125,1.00496730443539,121.090461730957,1.00130508016433,108.463661193848,1.0005142242104,128.350708007812,1,67544,-0.00496117801830101,-0.000536134519025233,-0.000725839800678105,0.000653438374547881,-0.000601427050339128,103,0.964067876338959,0.770998657665127,0.390915551344309,0.874231501016037,0.354838848114014,0.0717826587799796,0.359780291365628,0.685687533486094,0.00494345785851449,0.000685943974831529,0.000442847098189666,0.000368244696213016,-0.000119189214230031,0.854215155467523,3.2357453557067,61
44,1.43341135909998,155.502243041992,1.00491080221067,121.099601745605,1.00138065955324,108.434700012207,1.000247074145,128.316452026367,1,67572,-0.00576092105170647,-0.000594339026964994,-0.000675744495998748,-0.000104292064757134,-0.000582379085551542,103,0.963585436344147,0.768306399100219,0.384671165571539,0.874593908957948,0.355097055435181,0.0709931271922445,0.359808796542947,0.685160497863911,0.00327520895726949,0.000227623067967802,-6.17858361820684e-06,0.000104381812789774,-0.00032391104711826,0.854215155467523,3.2357453557067,61
45,1.46674650698603,155.435485839844,1.00447939342677,121.037162780762,1.00086434760097,108.436889648438,1.00026727226639,128.372833251953,1,67329,-0.00452814067186139,-0.00077811302916845,-0.000816890300727888,-0.000873375484110389,-0.00077956160432267,103,0.964327335357666,0.768475198898939,0.384767336511756,0.87144872574779,0.355706185102463,0.0747595811599643,0.358612187913084,0.684537778216227,0.00359707968373343,-0.000320813795377649,-0.000536932282748137,-0.000213007993777031,-0.000574680494661509,0.854215155467523,3.2357453557067,61
46,1.50008165487207,155.392944335938,1.00420447509774,121.031364440918,1.00081640074323,108.451538085938,1.00040239558714,128.472991943359,1,67700,-0.00442328812801221,-0.0011443302980596,-0.00120142311761412,-0.00152568103228045,-0.00121578769559305,103,0.96368932723999,0.769158050221566,0.385805022156573,0.876250630978113,0.355627447366714,0.0692975757497314,0.360162481536189,0.685698826041591,0.00256775536602011,-0.000914579408049133,-0.00110303440693891,-0.0006012699432361,-0.00088600380536996,0.854215155467523,3.2357453557067,61
47,1.53341680275812,155.390441894531,1.00418830343133,120.997978210449,1.00054032778341,108.408851623535,1.00000863778526,128.377349853516,1,67544,-0.00427269797603924,-0.00163219299509538,-0.00173253782794681,-0.00195324736970173,-0.001769035771382,103,0.964112758636475,0.768792688222986,0.385348809664811,0.874231501016037,0.354901105165482,0.0715367391051112,0.359498993248845,0.685240647696667,0.00495937908177393,-0.00147182874725549,-0.00162160233034094,-0.00103607023932932,-0.00123195723523852,0.854215155467523,3.2357453557067,61
48,1.56675195064417,155.425323486328,1.0044137206839,121.048767089844,1.00096030440441,108.312896728516,0.999123509657623,128.310424804688,1,67593,-0.00702459110646281,-0.00205887515423822,-0.00217927529141509,-0.0020875960505521,-0.00220486922647926,103,0.963493764400482,0.768866598612282,0.384507271463021,0.874865714914381,0.354294925928116,0.0714202508380684,0.359652626751291,0.685150046038744,0.00511253646608712,-0.00188372983158378,-0.00198363326870426,-0.00144140527572028,-0.00153767320901112,0.854215155467523,3.2357453557067,61
49,1.60008709853021,155.496002197266,1.00487047165236,121.015205383301,1.00068278042127,108.259483337402,0.998630802173992,128.212951660156,1,67408,-0.00651838526371384,-0.00218564574208812,-0.00226651267323498,-0.00190924808756106,-0.0022669585886623,103,0.963204026222229,0.76888994382467,0.384168051269879,0.872471233869611,0.355172336101532,0.0750961028203104,0.358577616900071,0.684279142249256,0.00626213025922512,-0.00204126935773829,-0.00208099636334665,-0.00170349636264427,-0.0016936365620016,0.854215155467523,3.2357453557067,61
50,1.63342224641626,155.583190917969,1.00543391617606,120.938636779785,1.00004962954724,108.179191589355,0.997890157472132,128.130569458008,1,67826,-0.00520033965752154,-0.00182484446832021,-0.00180091744199355,-0.00145068711472174,-0.00179098611690724,103,0.961922466754913,0.770515731430425,0.387933830684398,0.877881466716714,0.354840904474258,0.069763528817903,0.359847256214431,0.685391049606835,0.00818154813018024,-0.00187022645442194,-0.00184148725739806,-0.00170585380567194,-0.00158986167313491,0.854215155467523,3.2357453557067,61
51,1.6667573943023,155.600463867188,1.0055455401174,120.803291320801,0.998930448946878,108.102722167969,0.99718477151178,128.14045715332,1,67712,-0.00275112606827976,-0.000934610071480407,-0.0007716133940383,-0.000787571406424989,-0.000784656575370868,103,0.965495049953461,0.770267210144928,0.386135396975425,0.876405948667504,0.354851961135864,0.0702812544492046,0.247843809073724,0.663750965620223,0.00853470700594263,-0.00136149010802331,-0.00125905734700431,-0.00137324628393339,-0.00115797060885518,0.854215155467523,3.2357453557067,61
52,1.70009254218835,155.649276733398,1.00586098622019,120.779304504395,0.998732100366971,107.976936340332,0.996024470371569,128.160079956055,1,67602,-0.00390849097167109,0.000345656796323137,0.000626112995348782,-2.50669903837732e-05,0.000559935900268201,103,0.96540766954422,0.769863810735383,0.384722345492737,0.874982203181424,0.354795604944229,0.0710966723185048,0.248927546522292,0.663734721266629,0.00764568897542943,-0.000584668103636366,-0.000407190264566289,-0.00070819927023479,-0.000405526395289814,0.854215155467523,3.2357453557067,61
53,1.7334276900744,155.563262939453,1.00530513449108,120.743362426758,0.998434892936965,108.106178283691,0.997216652170269,128.235122680664,1,67467,-0.00133918007647235,0.00173688624115353,0.002058821249268,0.000723176028296286,0.00193387563882239,103,0.965914011001587,0.769141456810984,0.383194747061526,0.873234879175781,0.354697436094284,0.0732840631107545,0.248299168482369,0.663241177711347,0.00673236520713192,0.000321634252783691,0.000571129596544874,0.000193796817453535,0.000570237930225323,0.854215155467523,3.2357453557067,61
54,1.76676283796044,155.520401000977,1.00502814539989,120.694984436035,0.998034852114705,108.194801330566,0.998034148260806,128.271911621094,1,67787,0.001180025054109,0.00292137464868987,0.00318419812793835,0.0013533832447884,0.00302366091197545,103,0.965242266654968,0.77046237970899,0.388230781713308,0.877376684226194,0.356249064207077,0.0697505856771204,0.248277693363034,0.663898487569808,0.00539345022555315,0.00118147652432417,0.0014953944526989,0.00115823461160671,0.00159646071488444,0.854215155467523,3.2357453557067,61
55,1.80009798584649,155.570938110352,1.00535473417527,120.61653137207,0.997386118511913,108.180595397949,0.997903106790371,128.2783203125,1,67457,0.00341866526962445,0.00365862850225807,0.00378088718577828,0.00178989645792908,0.00362330155911869,103,0.964781284332275,0.768855221350885,0.384748802941133,0.873105447767955,0.35743260383606,0.0749666714124849,0.248365625509584,0.662644823029165,0.00243217352543051,0.00182620333447402,0.00219254324601635,0.00197409222347117,0.002465812960995,0.854215155467523,3.2357453557067,61
56,1.83343313373253,155.673751831055,1.00601915300633,120.635711669922,0.997544721670273,108.118827819824,0.997333336787875,128.006576538086,1,67457,0.00260101979337216,0.00386319044167337,0.00381846864546989,0.00199454480567996,0.00369347243889016,103,0.964043378829956,0.768919459804023,0.386868671894688,0.873105447767955,0.359367817640305,0.0764551326024773,0.246749781342188,0.661911871720335,0.000268996155834967,0.0021384880035164,0.00254136422811896,0.00245272393874761,0.00299307865979639,0.854215155467523,3.2357453557067,61
57,1.86676828161858,155.864318847656,1.00725066484682,120.825813293457,0.999116684636408,108.124847412109,0.997388864027496,127.626556396484,1,66921,-0.000992831306025399,0.00360956522504314,0.00343852307735684,0.00196899828120089,0.00334863714809781,103,0.964877128601074,0.767078595159467,0.38337741516116,0.866123082896525,0.361240535974503,0.0859121206238271,0.243376518581611,0.659564365598672,-0.000777197712597327,0.00208230133095226,0.00250274098210085,0.00248431931997584,0.00306934080729834,0.854215155467523,3.2357453557067,61
58,1.90010342950463,155.880752563477,1.00735686536345,120.812400817871,0.999005775983903,108.17845916748,0.997883401306094,127.350982666016,1,67462,0.000419150988128003,0.00306875158606059,0.00286382331848237,0.00174968933489195,0.0027851278285099,103,0.963535368442535,0.766401826213276,0.384616524858439,0.873124959554779,0.362568289041519,0.0766064841778295,0.243173934955975,0.660541956876031,-0.00296693145823321,0.00170985071799159,0.00212689142050034,0.00207234428399816,0.00269515851749005,0.854215155467523,3.2357453557067,61
59,1.93343857739067,155.768096923828,1.00662884455167,120.775909423828,0.998704026220006,108.155265808105,0.99766945604824,127.203742980957,1,67325,0.000182516817094414,0.00241858734535313,0.00228816470126934,0.00139419710917117,0.00218772039961671,103,0.96354466676712,0.765292734249288,0.384597103601931,0.87135184106646,0.364364594221115,0.0783148903125607,0.245168956554029,0.660448122402434,-0.0105769862081486,0.00114365202995574,0.00153560447073278,0.00133376045349329,0.00198111333987148,0.854215155467523,3.2357453557067,61
60,1.96677372527672,155.723754882812,1.00634229051144,120.723846435547,0.998273513907894,108.132797241211,0.997462196579694,126.858551025391,1,67844,0.000876231646397552,0.00177925025340101,0.00180420000692666,0.000968003973456295,0.00166458888802779,103,0.962798178195953,0.762907061297486,0.384912446200106,0.878068983368925,0.365839004516602,0.0712353588300007,0.24460527091563,0.660804353578812,-0.0145122069006421,0.000539522891836544,0.000885395482300202,0.0004646322622732,0.00111534007269301,0.854215155467523,3.2357453557067,61
61,2.00010887316277,156.504531860352,1.0113879490402,121.297500610352,1.00301709842544,108.653213500977,1.00226273405625,127.491271972656,1,66957,0.000171525986717713,0.00120037262976119,0.00139940585503787,0.000528492136874074,0.0012312511806844,103,0.960417091846466,0.769130436947095,0.390205654375196,0.872540332038886,0.368442475795746,0.0784748103938075,0.270696118404349,0.665513614368896,-0.0106218066535048,4.16701033827688e-05,0.000322618000803947,-0.00031993481391926,0.000306118714720168,0.854215155467523,3.2357453557067,61
62,2.03344402104881,156.494781494141,1.01132493870582,121.353218078613,1.00347782987552,108.680297851562,1.00251257144618,127.243209838867,1,67018,-0.000919983596929269,0.000688842319355373,0.00100895875865622,0.000115433467591985,0.000845197493524202,103,0.962126314640045,0.768201577685597,0.391372467098391,0.873335244598504,0.369487136602402,0.0743047772941698,0.272523799576233,0.66678788974531,-0.0157081753891533,-0.000256930876741719,-5.62131687112764e-05,-0.000852127695993529,-0.000282080397682816,0.854215155467523,3.2357453557067,61
63,2.06677916893486,156.70783996582,1.01270179832858,121.802177429199,1.00719030459981,109.21898651123,1.00748166119003,127.187797546387,1,67281,-0.00211975927118205,0.000244241567516444,0.000584043631546285,-0.0002537664259659,0.000458788635416609,103,0.964926719665527,0.768770777287298,0.391774795261664,0.877494326629627,0.369550675153732,0.0704150037822469,0.264621512759917,0.666643737320665,-0.0119557233117479,-0.000337633523924238,-0.000227719060287559,-0.00106156810977108,-0.000577534263938108,0.854215155467523,3.2357453557067,61
64,2.1001143168209,156.630584716797,1.01220254743192,121.784324645996,1.00704267874836,109.258430480957,1.00784550888184,126.946380615234,1,67712,-0.00151846305765538,-0.000126625348561803,0.00013134587249409,-0.000581013842453717,5.91284258196958e-05,103,0.963316261768341,0.76937618147448,0.397270793950851,0.883115528079923,0.369398355484009,0.0668283903278817,0.265108104914934,0.667033380267507,-0.0148687983086221,-0.00025643954278324,-0.00024226282632185,-0.000992622250335776,-0.00061906672427686,0.854215155467523,3.2357453557067,61
65,2.13344946470695,157.113525390625,1.0153234818343,122.345558166504,1.01168355604959,109.853958129883,1.01333890526089,127.19123840332,1,67654,-0.00277624102041876,-0.000422375409561122,-0.0002969976425021,-0.000880030309417014,-0.000328714428327616,103,0.956857800483704,0.769774637616894,0.396103704141662,0.880659186170628,0.370503038167953,0.0702012444351878,0.256777130694416,0.663292604673558,-0.0115521812060671,-0.000121908005433791,-0.000202255710343085,-0.000782188028543364,-0.000535706378141446,0.854215155467523,3.2357453557067,61
66,2.166784612593,157.090270996094,1.01517320366592,122.336265563965,1.01160671490127,109.729942321777,1.01219493152194,126.957656860352,1,68113,-0.00482491666548271,-0.000670318633853587,-0.00065004320878242,-0.00116471033116946,-0.000670256125745617,103,0.954215586185455,0.769544727144598,0.400716456476737,0.886634037124782,0.369014292955399,0.0645778553018666,0.256338731226051,0.663398131372195,-0.0148116761131279,-5.73509951836276e-05,-0.000224803937141086,-0.000605006700136404,-0.000494327428583798,0.854215155467523,3.2357453557067,61
67,2.20011976047904,157.598403930664,1.01845693941738,122.787330627441,1.01533660190547,110.3310546875,1.01773984366703,127.049713134766,1,68402,-0.0028460491352397,-0.00093427279280875,-0.000925115542550911,-0.00143811837654987,-0.000958363758812256,103,0.939582467079163,0.772891630849001,0.403789362884126,0.886438152011923,0.368908315896988,0.0613231387286982,0.251381538551504,0.6599385484533,-0.0104280076021634,-0.000158476401310947,-0.000399813449310363,-0.000606510385001871,-0.00063435912468421,0.854215155467523,3.2357453557067,61
68,2.23345490836509,157.610946655273,1.01853799496489,122.946273803711,1.01665091359924,110.489784240723,1.01920403152546,126.738395690918,1,68685,-0.0042765697471151,-0.00129007053204472,-0.0011797109769091,-0.00168666747762835,-0.00123077416004302,103,0.936016321182251,0.771075683676688,0.406566208051248,0.890105617831919,0.370043039321899,0.0620099786172488,0.250229307709107,0.658343481993962,-0.0162422569662813,-0.000459078077683036,-0.000756157519181365,-0.000846048107314634,-0.00101158739201417,0.854215155467523,3.2357453557067,61
69,2.26679005625113,158.265335083008,1.02276688573204,123.408660888672,1.02047442315197,111.01203918457,1.02402152979385,126.971405029297,1,68245,-0.00288922812539016,-0.0017753773674197,-0.00149588317695161,-0.00187674018707071,-0.00154760207155358,103,0.917801558971405,0.775539111534422,0.410623488900286,0.881558891156638,0.369637310504913,0.0694706383858217,0.244691918821892,0.652381293672383,-0.00985396849514201,-0.000915292432055875,-0.00124631757103493,-0.00127029100586876,-0.00157070374592568,0.854215155467523,3.2357453557067,61
70,2.30012520413718,158.251205444336,1.02267557498144,123.544540405273,1.02159801991029,111.134628295898,1.02515234308437,126.600685119629,1,69149,-0.00451865403944984,-0.00234321349703124,-0.00191607007644677,-0.00196241040247413,-0.0019436476297489,103,0.915027558803558,0.774014567576296,0.414872232425632,0.893236365515282,0.370044767856598,0.0593949414834526,0.244269620674196,0.652910536713636,-0.0138568048048876,-0.00141391072781686,-0.00175506561303919,-0.00172793368729066,-0.00215841719727559,0.854215155467523,3.2357453557067,61
71,2.33346035202323,159.283752441406,1.02934826092376,124.272315979004,1.02761604452411,111.666412353516,1.03005774188797,127.630729675293,1,68496,-0.0073200205630789,-0.00285298071757247,-0.00238937693768017,-0.00189472529160022,-0.00237739534397825,103,0.957872450351715,0.7791695865452,0.419367554309741,0.886174864801925,0.368021041154861,0.0630191217947059,0.347728334501285,0.684764637310073,-0.00350818629736212,-0.0018031938056818,-0.0021303962125306,-0.0020201938727533,-0.00257240214528158,0.854215155467523,3.2357453557067,61
72,2.36679549990927,158.990188598633,1.02745114695955,124.158500671387,1.02667489817708,111.538787841797,1.02888047995594,127.80525970459,1,68487,-0.00860492733436347,-0.00311285975211069,-0.0027641352635006,-0.00163648085042966,-0.00271676486104969,103,0.961399614810944,0.779529935121507,0.423306612933841,0.886058426268533,0.365275204181671,0.060056408000621,0.346255493743338,0.685897964195606,-0.00773013908367216,-0.00193792156940102,-0.00222866508389999,-0.0019703761467302,-0.00263023875026379,0.854215155467523,3.2357453557067,61
73,2.40013064779532,159.260101318359,1.02919541895461,124.418380737305,1.02882386372331,112.041496276855,1.03351767304319,128.124786376953,1,68405,-0.004934904775003,-0.00295638291243074,-0.00283846134702257,-0.0011743875869793,-0.00277426674829574,103,0.958368718624115,0.781122237653193,0.42531978656531,0.881076277080811,0.364034384489059,0.0670676730467039,0.334200716321906,0.681925942763576,-0.00235293670058487,-0.00172544324923825,-0.00196050614745534,-0.00148931110157599,-0.00223568204731762,0.854215155467523,3.2357453557067,61
74,2.43346579568136,159.036407470703,1.02774982974959,124.424789428711,1.02887685761871,111.980110168457,1.03295142187718,127.879112243652,1,68813,-0.00779328459255066,-0.0023162838168977,-0.00244971100762503,-0.000529853493404468,-0.00238916057962209,103,0.955720126628876,0.779910772673768,0.430049554589976,0.886331435637188,0.361618608236313,0.0628815786084134,0.332989406071527,0.681449014828932,-0.00671967052050567,-0.00115854141705827,-0.00132344777284903,-0.000611735808114848,-0.00141681731173764,0.854215155467523,3.2357453557067,61
75,2.46680094356741,159.413497924805,1.03018672238422,124.606575012207,1.03038005469677,112.292945861816,1.03583714929594,128.255950927734,1,68407,-0.00451382194270597,-0.00126230152366912,-0.00156256972063169,0.000242256659988924,-0.00151376025582537,103,0.944615066051483,0.785314368412589,0.434253804435219,0.880568964407543,0.360431551933289,0.0660487867670722,0.322657038022425,0.677180241917142,-0.000733079720918498,-0.00032420637698012,-0.000410226057872265,0.000508380608683646,-0.000323343339759206,0.854215155467523,3.2357453557067,61
76,2.50013609145346,159.343170166016,1.02973223939337,124.608871459961,1.03039904417595,112.269996643066,1.03562545609343,128.075317382812,1,68723,-0.00547717354074692,1.05451552560542e-05,-0.000313677531192597,0.00105540709608297,-0.000271319597200327,103,0.941524922847748,0.786238474261407,0.440871324010884,0.884636673746541,0.359063684940338,0.0638347171268585,0.3212752644675,0.676670423717421,-0.00183714569544145,0.000615404611919765,0.000610712717643346,0.00164068190169591,0.000815002236100299,0.854215155467523,3.2357453557067,61
77,2.5334712393395,159.650100708008,1.03171573372208,124.707878112793,1.03121773677183,112.484748840332,1.03760642027701,128.424667358398,1,67812,-0.00217961373392458,0.00123551353386969,0.0010119699695345,0.00180854077764219,0.00106165404712842,103,0.931011617183685,0.789378477752217,0.443284374447001,0.875795890428651,0.359371900558472,0.0704903847395679,0.314590337993276,0.672268205886689,0.000670947724947692,0.00146497017009209,0.00153779028929211,0.00254605049480231,0.00175628998853516,0.854215155467523,3.2357453557067,61
78,2.56680638722555,159.48551940918,1.03065215083222,124.751052856445,1.03157475159807,112.560127258301,1.03830174236504,128.226409912109,1,68046,-0.00323606259744241,0.00214889844896487,0.00206906843970477,0.00239981062242542,0.00213709692688183,103,0.928570926189423,0.788603787633856,0.447050524645093,0.878818013922432,0.357419818639755,0.0676103268801095,0.312435705258208,0.671532977824951,0.000107609424602082,0.00204845940196241,0.00218917055426761,0.00304546322393291,0.00231682574491073,0.854215155467523,3.2357453557067,61
79,2.6001415351116,159.263885498047,1.02921987366968,124.73876953125,1.03147317996523,112.433372497559,1.03713250338017,128.202438354492,1,67970,-0.00670378155768964,0.00256292218945923,0.00257296273309635,0.00274658246156815,0.00266194194155814,103,0.927907884120941,0.787597469471826,0.447050169192291,0.877836469539837,0.356421738862991,0.0699608673752728,0.312476092393703,0.670797944623297,-0.00189413804498484,0.00225605831226351,0.00245015952297912,0.00306785209202712,0.00242135625883263,0.854215155467523,3.2357453557067,61
80,2.63347668299764,159.605880737305,1.03142996854363,124.765617370605,1.03169518653415,112.67896270752,1.03939793030462,128.415512084961,1,68114,-0.000682204712938062,0.00241842912671661,0.00240626182849665,0.00280109503018443,0.00251196691268689,103,0.917362332344055,0.791090426833446,0.45018645212438,0.876560368568708,0.356431812047958,0.069029418577716,0.308570925213612,0.668228146522991,0.00349123716110594,0.00207105723226776,0.00230035704193535,0.00266033686684326,0.00211511606651159,0.854215155467523,3.2357453557067,61
81,2.66681183088369,159.95329284668,1.0336750691589,124.912902832031,1.03291309980867,112.683891296387,1.03944339367192,128.684631347656,1,68234,-0.00199791674352473,0.00180427385490934,0.00166661007930363,0.00255679096191969,0.00178167598917471,103,0.961148858070374,0.789225312893865,0.450801653134801,0.878104650863511,0.358044028282166,0.0760816410573186,0.3618137585368,0.688321966234555,0.00348275702184934,0.0015689129761153,0.00181290025776922,0.00196062997754246,0.00153654405724752,0.854215155467523,3.2357453557067,61
82,2.70014697876973,159.745407104492,1.03233163755391,124.876205444336,1.03260964666957,112.339042663574,1.03626236549593,128.34001159668,1,68462,-0.00846654748471393,0.000933702341455314,0.000632264222664576,0.00205169261870539,0.00074964211603736,103,0.964583694934845,0.79199166447567,0.456764336420204,0.881038787223638,0.355452120304108,0.0692353228836898,0.361981829335982,0.690862970834651,0.00334023099646006,0.000889908871984095,0.00112720671936585,0.00114746011198207,0.000866593365189754,0.854215155467523,3.2357453557067,61
83,2.73348212665578,159.479385375977,1.03061251052796,124.768936157227,1.03172262980141,112.551177978516,1.03821919046127,128.730407714844,1,68366,-0.00387319346644316,7.67284180281805e-05,-0.000344826597838546,0.00136119640500991,-0.000231163662347054,103,0.967288196086884,0.791338774634565,0.451116051838633,0.874502730982258,0.354669123888016,0.0769663711833404,0.352265746131118,0.688228333785523,0.00490325305143684,0.000195501358167334,0.000405368679354761,0.00038320505930039,0.000268737624201195,0.854215155467523,3.2357453557067,61
84,2.76681727454183,159.421676635742,1.03023957612323,124.643524169922,1.03068558973891,112.170791625977,1.034710347479,128.267547607422,1,68594,-0.00747428370147721,-0.00053395539007903,-0.000976333618598796,0.000581104439215818,-0.000873504189464234,103,0.967374503612518,0.793368710577213,0.457707671224888,0.877419189787278,0.35354295372963,0.074228993182138,0.350497128028691,0.688740154715168,0.00489142310240303,-0.000376735090350212,-0.000213007144970229,-0.000229718495463246,-0.000157508515514511,0.854215155467523,3.2357453557067,61
85,2.80015242242787,159.195434570312,1.02877751942863,124.548583984375,1.02990052303142,111.989440917969,1.03303749261743,127.934692382812,1,68289,-0.00969828558837718,-0.000787456135336078,-0.00114668290314024,-0.00018527182981049,-0.00105916496701477,103,0.966322362422943,0.793178013052371,0.461055221192286,0.873517786561265,0.352432936429977,0.0817120124844903,0.35168182284116,0.687478635786923,0.00593080507338418,-0.000745130795664255,-0.00064282554766101,-0.000661594660428203,-0.000390719710429661,0.854215155467523,3.2357453557067,61
86,2.83348757031392,159.232238769531,1.02901536125418,124.606330871582,1.03037803588171,112.197784423828,1.03495934034817,128.105773925781,1,69218,-0.00738132029408381,-0.000730111735626278,-0.000945126543427006,-0.000847695216606509,-0.000870664838752897,103,0.961239516735077,0.794393558515608,0.46040047386518,0.881555821595048,0.351683616638184,0.0703023510532617,0.34177526077032,0.686295266872433,0.00657022965062278,-0.000894394774499291,-0.00086417205447156,-0.000941756208792402,-0.00047351227527083,0.854215155467523,3.2357453557067,61
87,2.86682271819996,158.942459106445,1.02714270200503,124.438873291016,1.02899331801264,112.044570922852,1.03354603486521,128.069671630859,1,69137,-0.00763996067549114,-0.000530465721508391,-0.000605744448571492,-0.00134243676953212,-0.00053178487770223,103,0.960432827472687,0.793588575340749,0.462646629156602,0.880524211008941,0.351479172706604,0.0721872691612114,0.340714812618424,0.685418921394212,0.0014412780277049,-0.000864274278491705,-0.000911201690283824,-0.0011271874209053,-0.000478710819962306,0.854215155467523,3.2357453557067,61
88,2.90015786608601,158.725311279297,1.02573941551276,124.270401000977,1.02760020944346,111.881988525391,1.03204630675834,127.878288269043,1,69262,-0.00750109608811192,-0.000386131057560246,-0.000383761367768233,-0.00163951239299722,-0.000291426398537209,103,0.958150207996368,0.792507676166825,0.466388495856314,0.882116202654168,0.35189288854599,0.0719580223642986,0.339276948398833,0.684381193333936,-0.00343443139484823,-0.000723986346227783,-0.000846911691938338,-0.00126691966005298,-0.000469891619032777,0.854215155467523,3.2357453557067,61
89,2.93349301397206,159.017929077148,1.02763041579821,124.521278381348,1.02967473118425,112.304122924805,1.03594025120474,128.61962890625,1,69040,-0.00481118738409347,-0.000418255989540809,-0.000428234359487475,-0.00174436196235798,-0.000304346165918765,103,0.944375693798065,0.796707222865971,0.466323870220162,0.87387980355425,0.350152760744095,0.0777175839198015,0.329461181923523,0.678892790980247,0.00123479476150243,-0.000544086868905018,-0.000735513120990614,-0.00138048793504428,-0.000476394517803618,0.854215155467523,3.2357453557067,61
90,2.9668281618581,158.784729003906,1.02612339398236,124.638549804688,1.03064445638201,112.445541381836,1.03724475426382,128.322570800781,1,70724,-0.0072205555004623,-0.000611029155695492,-0.000713743461069691,-0.00169265807173194,-0.000563700558820334,103,0.939201354980469,0.791442791697302,0.46616424410384,0.895195179990886,0.349517464637756,0.0582881879398511,0.329336575985521,0.679630102211306,-0.00529684470429089,-0.000376446569070902,-0.000622996115703101,-0.00145655208409773,-0.000490119903521647,0.854215155467523,3.2357453557067,61
91,3.00016330974415,160.015365600586,1.03407620537213,125.512496948242,1.03787118342663,113.049278259277,1.04281387600387,129.490036010742,1,69628,-0.0112546408234526,-0.000831295275763327,-0.00106395362943911,-0.00153860000619987,-0.000914901425082092,103,0.962113380432129,0.800434691024683,0.47432067559028,0.879618985055017,0.345892876386642,0.0610179769319201,0.291089791463204,0.679070365296503,0.00753241601270845,-0.000247799897862255,-0.000531197725948545,-0.00146794548743125,-0.000480930720358576,0.854215155467523,3.2357453557067,61
92,3.03349845763019,160.01481628418,1.03407265549414,125.520835876465,1.03794013857861,113.17733001709,1.04399507903276,129.186477661133,1,69798,-0.0092683918637344,-0.000916174246930294,-0.00125234535410477,-0.00134177401017166,-0.00114166195241558,103,0.966095447540283,0.801498610275366,0.479025186968108,0.881198868801131,0.344456911087036,0.0597288152711847,0.279793117281297,0.678225596953014,0.00735226773119402,-0.000165601074035263,-0.000464157602347721,-0.00139554438558509,-0.000423071763740539,0.854215155467523,3.2357453557067,61
93,3.06683360551624,159.914611816406,1.03342509858354,125.425788879395,1.03715418863953,113.197731018066,1.0441832664076,129.193008422852,1,69152,-0.00709181344626431,-0.000774450615735124,-0.0011256130311467,-0.00115449452326044,-0.00107983522723422,103,0.962494850158691,0.802199020515194,0.481128528459047,0.87303210493757,0.345128774642944,0.0717847719324824,0.269753586302638,0.673528670394042,0.00785187171012334,-0.00012951456864576,-0.000419963951276429,-0.00124684110991975,-0.00031732058957089,0.854215155467523,3.2357453557067,61
94,3.10016875340229,159.726654052734,1.03221044866353,125.284164428711,1.03598308663927,112.98055267334,1.04217992242402,128.791015625,1,69634,-0.00840006888040465,-0.000440533610835768,-0.000685156991528934,-0.00101062699796307,-0.000702851590868247,103,0.960211157798767,0.803213947209696,0.490909613120028,0.879117272027169,0.344743400812149,0.0657501041548309,0.269006519803544,0.673976866187567,0.00366541391567185,-0.000140297601484336,-0.00039966889852826,-0.00105689859955962,-0.000194811369574019,0.854215155467523,3.2357453557067,61
95,3.13350390128833,159.854232788086,1.03303490782745,125.352645874023,1.03654936426435,113.080436706543,1.04310129456738,128.997772216797,1,69539,-0.00757486989543851,-5.21790217811661e-05,-8.64245682131011e-05,-0.000919497466204853,-0.000138026539944994,103,0.949682712554932,0.806755921137779,0.493262773407728,0.876468364003025,0.344882607460022,0.0664608016133098,0.263449287450208,0.670827991598201,0.00536696943113612,-0.00020067339144495,-0.000408010847851668,-0.000872473505468585,-0.000102254654684795,0.854215155467523,3.2357453557067,61
96,3.16683904917438,159.76106262207,1.03243280907671,125.096527099609,1.03443150108768,112.917816162109,1.04160121457687,128.872314453125,1,69541,-0.00417742686216302,0.000229872786583278,0.000440353827648858,-0.000865512327432515,0.000394766094997977,103,0.948684513568878,0.80667999213893,0.496297148444802,0.876493571968742,0.344382256269455,0.0680489034534913,0.262607670295222,0.670140836326491,0.00492695206282147,-0.000308122858583905,-0.000445902796767095,-0.000728200231701483,-7.71300136627837e-05,0.854215155467523,3.2357453557067,61
97,3.20017419706042,159.667266845703,1.03182666740937,125.021102905273,1.03380781340926,112.607612609863,1.0387397671298,128.616561889648,1,69342,-0.00817505903503776,0.000311084569013279,0.000705422210848749,-0.000813816858489556,0.000690080918615164,103,0.947201371192932,0.807432724755559,0.496784055839174,0.873985379379884,0.344382554292679,0.072535921351147,0.262337400132676,0.669148620359697,0.00394212805433598,-0.000444751350987315,-0.000499931473182833,-0.00062437344886462,-0.000122651628404635,0.854215155467523,3.2357453557067,61
98,3.23350934494647,159.51057434082,1.0308140647118,124.760284423828,1.03165108804263,112.322776794434,1.03611232230851,128.434112548828,1,69692,-0.00722162367821874,0.000212006158786428,0.000653033454909014,-0.000716983112285656,0.00066227604280539,103,0.948697030544281,0.807290171994873,0.498866440911439,0.878396773380388,0.344414710998535,0.0660448701789766,0.263444871721288,0.670754087150666,0.00508689525798415,-0.000571734480490742,-0.000536424095968491,-0.000519339541507254,-0.000196926493487084,0.854215155467523,3.2357453557067,61
99,3.26684449283252,159.368942260742,1.02989878783588,124.643264770508,1.03068344474791,112.127517700195,1.03431117066895,128.425659179688,1,69511,-0.00847342326530828,5.50986660117436e-05,0.000389504569451333,-0.000529943334432958,0.000391050510974472,103,0.948594570159912,0.807387799532928,0.498050668239559,0.876115452482985,0.344089478254318,0.068300983110663,0.264145243198918,0.670527093788641,0.00558176645497722,-0.000634118567599132,-0.000506023654183656,-0.00034399739852449,-0.00022542193653188,0.854215155467523,3.2357453557067,61
100,3.30017964071856,159.284896850586,1.02935565650292,124.47721862793,1.02931039815342,112.007461547852,1.03320372245264,128.296310424805,1,69660,-0.00669285800033531,3.16759001192096e-06,0.000135182782006416,-0.000218543879098776,9.30006776719628e-05,103,0.947516083717346,0.807728012249976,0.496497272466265,0.877993445928913,0.344468533992767,0.0671288127048147,0.263077806488659,0.670299574644293,0.00777624619417121,-0.000576530690240236,-0.000359215416114554,-3.20635799475892e-05,-0.00013111622432591,0.854215155467523,3.2357453557067,61
101,3.33351478860461,159.547073364258,1.03104993438291,124.461730957031,1.02918232957288,111.942443847656,1.03260397196335,128.531875610352,1,69225,-0.00546975832033197,0.000184271261147694,0.000124256560381532,0.000228535198474214,2.13687879512048e-05,103,0.963521003723145,0.806803900325027,0.496785843264717,0.87251071338543,0.345444530248642,0.0734182001512478,0.377276995305164,0.695949518032625,0.00932043935949023,-0.000364446632344398,-6.74685986677694e-05,0.000445741703704772,0.000129329096186812,0.854215155467523,3.2357453557067,61
102,3.36684993649066,159.485961914062,1.03065501045616,124.27254486084,1.02761793716323,111.591407775879,1.02936586825969,128.314178466797,1,69739,-0.00687901272601804,0.000636298714830811,0.000497038687398755,0.000794549671344111,0.000345429695475618,103,0.962782680988312,0.807439166033353,0.499046444600582,0.878989160574742,0.345337480306625,0.0663977816990169,0.376489482212249,0.696857754824356,0.00977309467461321,-1.84462860471615e-06,0.000359298715565227,0.00105913661730742,0.0005398255564509,0.854215155467523,3.2357453557067,61
103,3.4001850843767,159.114196777344,1.02825253191652,124.052108764648,1.02579513642556,111.51847076416,1.02869306672513,128.573348999023,1,69724,-0.00493350655375563,0.00128885230700306,0.00123005118986034,0.00143412374462233,0.00106135045262378,103,0.963114857673645,0.807469450978142,0.498379324192531,0.878800100831863,0.344713151454926,0.0650869674817242,0.377875623888475,0.697433814594659,0.0062586225912832,0.000463420003285047,0.0008676716044082,0.00171836493631646,0.00102192317074147,0.854215155467523,3.2357453557067,61
104,3.43352023226275,159.19660949707,1.02878511222323,124.124000549316,1.02638961437354,111.560562133789,1.02908133514209,128.28076171875,1,70205,-0.00552589118149877,0.00198404153915857,0.00213259269005181,0.00207586922978394,0.00197521690735657,103,0.964767217636108,0.809287087814258,0.501032689979346,0.8831928544471,0.343875348567963,0.0628884136369355,0.36681148066377,0.696349371922723,0.00820063041266382,0.000950333257937965,0.00137191577251528,0.00229846048411991,0.00145740338389503,0.854215155467523,3.2357453557067,61
105,3.46685538014879,158.811141967773,1.0262940839492,123.875015258789,1.02433073844948,111.524253845215,1.02874641228613,128.523452758789,1,70129,-0.00228372844226202,0.00252667330432458,0.00291203972756866,0.0026338771828249,0.00277401448586568,103,0.964309751987457,0.806699083118254,0.501903634730283,0.882236759340798,0.343434065580368,0.0651905900113222,0.367380113790301,0.695462782976764,0.00427198978617954,0.00136829044373404,0.0017781779401054,0.0026795856123676,0.00172890348643514,0.854215155467523,3.2357453557067,61
106,3.50019052803484,159.179779052734,1.02867634790582,124.277267456055,1.0276569886171,111.884986877441,1.03207396481306,128.211212158203,1,71448,-0.00415669217276152,0.00274697501244068,0.00328330167742029,0.00301763227937803,0.00314859408710784,103,0.955300331115723,0.809297204493711,0.503862949277796,0.891706708268331,0.343502849340439,0.0537784711388456,0.349121039077371,0.691904176110932,0.00518756906651822,0.00164412136349971,0.00201202936216709,0.00278680133465953,0.00176151868867924,0.854215155467523,3.2357453557067,61
107,3.53352567592089,159.23046875,1.02900392275842,124.471580505371,1.02926377614306,112.202529907227,1.03500311467396,128.576171875,1,71210,-0.00352149577862218,0.00255551818148643,0.00307986293370273,0.0031493375515143,0.00292489353619626,103,0.945347845554352,0.811313954032673,0.509254318213734,0.889913645509192,0.342598050832748,0.0549244554418326,0.339601179609605,0.687732075246351,0.00449562459565534,0.00174134326683905,0.00203819522757045,0.00261271869674191,0.00154784172320941,0.854215155467523,3.2357453557067,61
108,3.56686082380693,159.451629638672,1.03043314308158,124.775909423828,1.03178029220664,112.491905212402,1.03767243364934,128.642272949219,1,71388,-0.00507560734907489,0.00197252935952514,0.00232150963673586,0.00297502656188012,0.00213519925086292,103,0.930625379085541,0.812676266786201,0.514526250910517,0.89170351495166,0.343595832586288,0.0523745284668615,0.329453129377486,0.682702299449425,0.00167806645760819,0.00166354035929321,0.00186401381282031,0.00221274592760706,0.00114486906618278,0.854215155467523,3.2357453557067,61
109,3.60019597169298,159.783264160156,1.03257628331227,125.057479858398,1.03410861685359,112.965133666992,1.04203769105358,128.62532043457,1,70784,-0.00204357333414854,0.00112149368038813,0.00120891281477467,0.00247844451697972,0.00100651367777252,103,0.911816596984863,0.815160676612417,0.523027802893309,0.887540280616403,0.342919081449509,0.0590949556756486,0.319733273056058,0.675477746271807,0.00346624720370087,0.00144121443634653,0.0015260892605695,0.001675071926624,0.000644030199600229,0.854215155467523,3.2357453557067,61
110,3.63353111957902,160.006484985352,1.03401881567791,125.37077331543,1.03669926128275,113.210571289062,1.04430171044344,129.034057617188,1,71592,-0.00457996173166053,0.000186486689847891,4.33710758184786e-05,0.00168433660836875,-0.000140799165948764,103,0.893664002418518,0.815277312176407,0.525128505978322,0.895571678759069,0.340863287448883,0.0506004503377533,0.313023801542072,0.670980151294285,0.000388344972999702,0.0011093323294636,0.00106726025312336,0.00107958987457006,0.000128505399803427,0.854215155467523,3.2357453557067,61
111,3.66686626746507,161.219055175781,1.04185487552479,126.251251220703,1.0439799916303,113.980247497559,1.05140152605136,129.953033447266,1,71168,-0.00606325074833014,-0.000656424370269662,-0.000898219378150623,0.00066103679022117,-0.0010302090698427,103,0.963316977024078,0.818804331534772,0.527048673561151,0.887049732020441,0.337587416172028,0.0561635298516764,0.306865445143885,0.686977034815483,0.0114838221340647,0.000687718142593389,0.000516264849595959,0.000465004059393791,-0.00036212741949243,0.854215155467523,3.2357453557067,61
112,3.70020141535112,161.006637573242,1.04048215742635,126.23600769043,1.04385394186482,113.93083190918,1.05094569597402,130.067413330078,1,71616,-0.00805192641913888,-0.00130977971073025,-0.00148007173927077,-0.000488878591434782,-0.00154889692305743,103,0.966603457927704,0.822856158772714,0.536653820375335,0.893480050902014,0.33460733294487,0.0511390573146693,0.295897564789991,0.68721936002412,0.00990574441858058,0.000175419728242213,-0.000118752927164873,-0.00018069759942216,-0.000843567662181735,0.854215155467523,3.2357453557067,61
113,3.73353656323716,161.150054931641,1.04140897140575,126.282241821289,1.04423625496731,114.066360473633,1.05219586819788,130.036437988281,1,71562,-0.00589987930952274,-0.00179314738081809,-0.00176049915995794,-0.00163955550210539,-0.00178454488537764,103,0.955797612667084,0.826532703576386,0.545848355272351,0.891593885102725,0.333374947309494,0.0570624073358833,0.286967943880831,0.682519547484473,0.0101683127978806,-0.000436400094789354,-0.000838087683421589,-0.000900284786364992,-0.00136754901228188,0.854215155467523,3.2357453557067,61
114,3.76687171112321,161.28564453125,1.04228519962375,126.307319641113,1.04444362512703,114.03840637207,1.05193800786078,130.012756347656,1,71377,-0.00605342138793341,-0.00222163097578536,-0.00194997391998506,-0.00266084180926315,-0.00196559103498055,103,0.943703651428223,0.828833751301773,0.552180674446951,0.890176221892421,0.332297921180725,0.0549617749398252,0.28007621502725,0.678914022132488,0.0114283760568154,-0.0011382152594602,-0.00162484436100823,-0.00172472583723124,-0.00197806673058777,0.854215155467523,3.2357453557067,61
115,3.80020685900925,160.91455078125,1.03988705982388,126.207611083984,1.04361912843785,113.951309204102,1.05113458711615,129.727569580078,1,71296,-0.00758627429345923,-0.00272501835710933,-0.0022868734752075,-0.00343602099146629,-0.00232468116625348,103,0.938122749328613,0.826741098144823,0.555150359066427,0.889166032700198,0.333239555358887,0.0618959130987865,0.279791292639138,0.67593381939314,0.0061513099265211,-0.00187574282066049,-0.00241888804408498,-0.00262718086359444,-0.00266261184340443,0.854215155467523,3.2357453557067,61
116,3.8335420068953,161.276809692383,1.04222810575269,126.194778442383,1.04351301447112,113.955612182617,1.05117427959162,129.853393554688,1,70382,-0.00450778852232289,-0.00334426018466411,-0.00288730419227865,-0.00387880952432999,-0.00295202947770119,103,0.92284494638443,0.83443683517566,0.565400244380665,0.875692085650654,0.332117170095444,0.0708446866485014,0.271177289647921,0.670498911697064,0.0131015804655177,-0.00253920548345811,-0.00310635874478578,-0.00349814293039091,-0.00332425832556162,0.854215155467523,3.2357453557067,61
117,3.86687715478135,161.088775634766,1.04101296279406,126.123107910156,1.04292036607428,113.785087585449,1.04960128930929,129.920211791992,1,70366,-0.00689000750054877,-0.00396249275569093,-0.00364554064716602,-0.00394739585150601,-0.00371366406744938,103,0.921315670013428,0.834801845588305,0.566054628655885,0.87549301382305,0.331879407167435,0.0739800679332612,0.271039990904698,0.669660473932636,0.0154826658287129,-0.00297896107766409,-0.00353547074253072,-0.00415698061610813,-0.00379105227070283,0.854215155467523,3.2357453557067,61
118,3.90021230266739,160.714569091797,1.0385947070189,125.770317077637,1.04000311522077,113.377830505371,1.04584457948552,129.905410766602,1,70334,-0.00716962343724145,-0.00431760654201849,-0.00424411614950183,-0.00364730074281356,-0.00427773784868559,103,0.921799063682556,0.834390195353599,0.565928285039952,0.875094870167842,0.33113420009613,0.0720764435817999,0.270722552392868,0.669940084496844,0.0131949270338337,-0.00304721922701679,-0.00355833611522711,-0.0044002595835296,-0.00386382538176226,0.854215155467523,3.2357453557067,61
119,3.93354745055344,160.516342163086,1.03731369410196,125.542640686035,1.0381204439989,113.11156463623,1.04338843162398,129.927474975586,1,70358,-0.00708962114518216,-0.00410451468058841,-0.00428212861657546,-0.00303099953420201,-0.00425320959480777,103,0.923348605632782,0.834304556695756,0.56432815031695,0.875393477909248,0.330146163702011,0.06998618939196,0.270701270644419,0.670640526573517,0.0172056072034007,-0.00265305876904545,-0.00308608072222432,-0.00407413905365588,-0.00339002418157314,0.854215155467523,3.2357453557067,61
120,3.96688259843948,160.148834228516,1.03493872711676,125.232696533203,1.03555749518888,112.885765075684,1.041305561936,130.391403198242,1,70753,-0.00534429673605405,-0.00312651699318597,-0.0034698920760412,-0.00218587623723746,-0.00337651698967376,103,0.927052557468414,0.834117752368569,0.559933854394867,0.880308063653217,0.329287379980087,0.0615131947295734,0.272285274122652,0.673201633508616,0.0198612452640955,-0.00180945491004288,-0.00213588158108638,-0.003142974852558,-0.0023347887239566,0.854215155467523,3.2357453557067,61
121,4.00021774632553,159.992095947266,1.03392582859603,124.910926818848,1.03289676002426,112.551124572754,1.03821869782416,130.864135742188,1,71351,-0.003613626242502,-0.00142328634572286,-0.0017984852897983,-0.00121908966202948,-0.0016659363123481,103,0.964116215705872,0.826365432860086,0.546957996384073,0.887748373209909,0.329603582620621,0.0569469846839113,0.306821207831705,0.6885548645154,0.0277001645845686,-0.000650947591863194,-0.000848542850642811,-0.0017248183508153,-0.000818667195865884,0.854215155467523,3.2357453557067,61
122,4.03355289421158,159.587875366211,1.03131361143163,124.433746337891,1.02895092289632,112.206085205078,1.03503591022993,130.400634765625,1,72715,0.000296376743222637,0.000692923534671758,0.000403503216672577,-0.000238379224344844,0.000538952959167423,103,0.958080768585205,0.816406518600014,0.530674551330537,0.903123641557474,0.335546165704727,0.0492206421163758,0.298700405693461,0.684666274266376,0.0271724423114789,0.000590239804232501,0.000535694107280295,-7.62941494384134e-05,0.000896587488045627,0.854215155467523,3.2357453557067,61
123,4.06688804209762,159.028045654297,1.02769579271792,123.780364990234,1.02354806908487,111.452613830566,1.02808557479559,129.658096313477,1,73008,0.000760006932813029,0.00272200344350979,0.00256535235289545,0.000663416146991321,0.00267708442569416,103,0.944409787654877,0.815581854043392,0.525997150997151,0.909586993085405,0.338138163089752,0.047305799539027,0.277969537584922,0.677243797313138,0.0281426414818695,0.00164628303646379,0.00173974190329277,0.00147380811243945,0.0024754275967629,0.854215155467523,3.2357453557067,61
124,4.10022318998367,158.188461303711,1.02227010002844,122.877914428711,1.01608564538169,110.615097045898,1.02035996930844,129.195663452148,1,73169,0.00441124057650771,0.00415500960217171,0.00408959903751862,0.00142198279666713,0.00417474986406617,103,0.922703564167023,0.814106156067916,0.518211264333256,0.909892433003793,0.338830262422562,0.0434993471367282,0.253563667673468,0.667249960248156,0.0240851997778771,0.0022949502327795,0.00253156461560486,0.00262188032104904,0.0036083955851375,0.854215155467523,3.2357453557067,61
125,4.13355833786972,157.342330932617,1.0168021046262,121.764549255371,1.00687915472828,109.48518371582,1.00993717566101,128.582611083984,1,72923,0.00863735427323936,0.00467374316710125,0.00459512608526169,0.00200501038417449,0.0046721347714113,103,0.897746682167053,0.814205851834583,0.514364466629184,0.902937024838414,0.340006619691849,0.0506302468982937,0.228432730414273,0.654863547487808,0.0252369103008236,0.00243135681122843,0.0027967098927081,0.00318310845193579,0.00410853252539873,0.854215155467523,3.2357453557067,61
126,4.16689348575576,156.544281005859,1.0116448221561,120.994445800781,1.00051111805297,108.423301696777,1.00014193131105,127.967063903809,1,73086,0.00517682119106253,0.00428069007955478,0.00407701998491728,0.00240925195587641,0.00416999612721253,103,0.874164700508118,0.811673918397504,0.505650877048956,0.907957015963724,0.341094076633453,0.043369153363563,0.212831458829324,0.646503186034225,0.0212345435949115,0.0021030409618058,0.00257415112729479,0.00314888801986058,0.00397072080454984,0.854215155467523,3.2357453557067,61
127,4.20022863364181,156.139678955078,1.00903013979864,120.219703674316,0.99410472389147,107.244453430176,0.989267741320237,127.088394165039,1,72306,0.00270601948442636,0.00329516205273315,0.00290664603540169,0.00265240391457576,0.00302796965588549,103,0.855074286460876,0.810970043979753,0.500871296987802,0.899910389804351,0.340707272291183,0.0499079006322497,0.197369512903493,0.637451218890708,0.0208238036293704,0.00149331847916139,0.00204033152005035,0.00268511728327175,0.00337011467211645,0.854215155467523,3.2357453557067,61
128,4.23356378152785,155.66845703125,1.00598493612679,119.552368164062,0.988586482181599,106.469589233398,0.982120069536214,126.001426696777,1,72714,0.00382417876694882,0.0022127842427589,0.0016681530834607,0.00275930735491287,0.0018097403304931,103,0.837060928344727,0.809069321817898,0.495722969441923,0.902707601395389,0.341431438922882,0.0440466288438381,0.181024286932365,0.63023649322122,0.0202867447067747,0.000856641562437837,0.00144494502037622,0.00206762355217636,0.00259555323969853,0.854215155467523,3.2357453557067,61
129,4.2668989294139,154.41633605957,0.997893285064392,118.442321777344,0.979407434795447,105.44075012207,0.972629626801959,126.458290100098,1,73778,0.00673042797127096,0.00149140194217207,0.000903773866009149,0.00275116035943074,0.00104476049617659,103,0.79956728219986,0.954729052020928,0.907221664994985,0.918390718749222,0.346575230360031,0.0510244728259516,0.162948304372577,0.645263376176514,0.0159866910430377,0.000428048800759911,0.00102062310605281,0.0015784730246767,0.00194256661013152,0.854215155467523,3.2357453557067,61
130,4.30023407729995,154.915176391602,1.00111696871313,118.273284912109,0.978009657716437,104.626525878906,0.96511888147015,124.321319580078,1,71605,0.000900974264643722,0.0013601445717168,0.000882224326578311,0.00263556401004032,0.00100344482510591,103,0.805018961429596,0.811707748527803,0.490943369876405,0.897272032379735,0.33787128329277,0.042805408317983,0.15512883178549,0.61777319108918,0.0197025862766257,0.000339236307368139,0.000899022511549594,0.00140260457036513,0.00160690234607184,0.854215155467523,3.2357453557067,61
131,4.33356922518599,152.03059387207,0.98247577050892,116.338073730469,0.962007267770374,103.120895385742,0.951230315398945,127.740585327148,1,71554,0.00578603653414622,0.00173440786217662,0.00149238267228791,0.00240821426151045,0.00159145682652649,103,0.96413242816925,0.797677278698605,0.4753053637812,0.898355304456999,0.343818753957748,0.0442686754551161,0.390278670654331,0.701541308840081,-0.010544596068403,0.000572190050852271,0.00106438703220987,0.00156010262285647,0.00161489175841345,0.854215155467523,3.2357453557067,61
132,4.36690437307204,151.643753051758,0.979975867539912,115.920249938965,0.958552255054542,102.742156982422,0.947736673790264,127.225440979004,1,72099,0.00765013584618668,0.00226951464878979,0.00230559298034962,0.00205332908246904,0.00239555169447795,103,0.952026128768921,0.795563507584479,0.469132720287383,0.908849111307198,0.346163600683212,0.0417118366317913,0.366523807542407,0.693750101356521,-0.00549035078195565,0.000967790922234976,0.00136184005570742,0.00189886768641381,0.00181600248314577,0.854215155467523,3.2357453557067,61
133,4.40023952095808,151.002349853516,0.97583089194421,115.289398193359,0.953335700020598,102.197631835938,0.942713745848304,126.817665100098,1,71668,0.0105112026893714,0.00252327180283749,0.00277331512954464,0.00155866176404312,0.00287246943774284,103,0.934621393680573,0.794054994325687,0.461614667634091,0.903700901582498,0.347519993782043,0.0475127671647437,0.342914550426969,0.683447214624315,-0.0053289927979398,0.00128676165051936,0.00155807312531921,0.00215456437138491,0.00194456150282337,0.854215155467523,3.2357453557067,61
134,4.43357466884413,150.059494018555,0.969737822192002,114.600189208984,0.947636585098707,101.387603759766,0.935241707717752,126.702331542969,1,72356,0.00815828124905571,0.00214962917474638,0.00246848160731473,0.000924279195581723,0.00258374407262207,103,0.912402093410492,0.793193837875689,0.456271767372436,0.914162981680354,0.350664973258972,0.037207833228048,0.324700093979767,0.675726056407226,-0.012057558794832,0.00130080874860553,0.00143211911432225,0.00205511763626122,0.001726767578667,0.854215155467523,3.2357453557067,61
135,4.46690981673018,149.544540405273,0.966410008788796,114.103042602539,0.943525646751422,100.589042663574,0.927875445811724,126.084373474121,1,71690,0.0039816381549751,0.00103749424462442,0.00126523306533035,0.000174478012225419,0.0013861209033019,103,0.893367290496826,0.791319105407542,0.449100292927884,0.906779661016949,0.350675642490387,0.0413736402732102,0.310210629097503,0.667027987081502,-0.0104484855985372,0.000880789299363105,0.000863145675697006,0.00143105823496737,0.000993143429175195,0.854215155467523,3.2357453557067,61
136,4.50024496461622,149.417846679688,0.965591268872747,113.70108795166,0.940201857014664,100.026145935059,0.92268305070499,125.167335510254,1,71263,0.00415208664315614,-0.000654758989801389,-0.000613743910109326,-0.000638207213262009,-0.000508422291985365,103,0.876689493656158,0.791855521097905,0.44237542623802,0.902577417516307,0.349936753511429,0.0397694889494016,0.300268021273312,0.661233963656379,-0.0132716455334934,4.98808707228075e-05,-0.000116876928235675,0.000290916893434038,-0.000245232140485258,0.854215155467523,3.2357453557067,61
137,4.53358011250227,149.266494750977,0.964613178877891,113.118598937988,0.935385216627038,99.4317474365234,0.917200070081914,124.318061828613,1,70305,0.00844353544474899,-0.0025644893489191,-0.00269094043884683,-0.00143576363825448,-0.00261725079102682,103,0.859197735786438,0.794206196809141,0.439982931512695,0.893249647426531,0.347890168428421,0.0475942419352789,0.286409216983145,0.653307437995422,-0.00801173393647266,-0.00101721619482883,-0.00132448441882102,-0.00116745094650308,-0.00178628136334313,0.854215155467523,3.2357453557067,61
138,4.56691526038831,148.510559082031,0.959728053720601,112.712371826172,0.932026097626683,98.7911682128906,0.911291099114828,123.48218536377,1,70384,0.00278458618990854,-0.0042495797857213,-0.00441930687457844,-0.00212736835469277,-0.00437817663038227,103,0.840559005737305,0.795218610290218,0.436548079108888,0.894639838318101,0.346913367509842,0.0413356551803033,0.274707319845419,0.647511232632605,-0.00955437115957622,-0.0020484139036557,-0.00247938362519375,-0.00261210185193433,-0.00329397972583381,0.854215155467523,3.2357453557067,61
139,4.60025040827436,148.88591003418,0.962153705074917,112.542098999023,0.930618100296418,98.4292678833008,0.90795277894828,122.100219726562,1,69587,0.00387556393304103,-0.00532647077203001,-0.00537924604321337,-0.00262263584070103,-0.0053555566559726,103,0.824000895023346,0.794204856271047,0.43388851365916,0.880658592454788,0.343240320682526,0.0481035726489236,0.264014830356245,0.639947589457467,-0.000484638190658507,-0.00276214082035295,-0.00329281246666688,-0.00368166891385266,-0.0044048853317774,0.854215155467523,3.2357453557067,61
140,4.63358555616041,149.549652099609,0.966443042375678,112.889503479004,0.933490811042614,98.4077682495117,0.907754457324388,120.283561706543,1,68544,-0.000949478354619754,-0.00558230079890883,-0.0054118479236268,-0.00285562601111931,-0.00538994306761973,103,0.81284099817276,0.794764433551198,0.434567577030812,0.869704236610711,0.3347327709198,0.048240772461396,0.253428454715219,0.63513030360265,0.0134086051154442,-0.00295822633641698,-0.00355891966629315,-0.00410412203499555,-0.00484783062803486,0.854215155467523,3.2357453557067,61
141,4.66692070404645,143.648574829102,0.928308182210273,108.631591796875,0.898281856206192,94.7717437744141,0.874214245175263,126.467132568359,1,72002,0.00748241211418413,-0.0050301842686067,-0.00464481528239739,-0.00279402851442679,-0.00461891149566887,103,0.944504797458649,0.922381785691138,0.823643787672565,0.917643760195759,0.356209456920624,0.050838601141925,0.34874031276909,0.712216442874,-0.0314449192130599,-0.00258089179116686,-0.00321801782089302,-0.00378679214170727,-0.00453332466495155,0.854215155467523,3.2357453557067,61
142,4.7002558519325,143.169631958008,0.925213083031067,108.316551208496,0.895676764631741,94.3198318481445,0.870045620353399,126.3203125,1,72974,0.00465405187827678,-0.00389081859754944,-0.00341246965296961,-0.0024555837854722,-0.00339473532008326,103,0.928972542285919,0.899137592384502,0.765587743579905,0.928765065991269,0.359063804149628,0.0443802420740477,0.323348041768301,0.699639423670193,-0.0317465399043861,-0.00173398777727952,-0.00237202887388434,-0.00284628110690584,-0.00358164014327557,0.854215155467523,3.2357453557067,61
143,4.73359099981854,142.715713500977,0.922279700515998,107.886840820312,0.892123460857546,93.9505310058594,0.86663903475918,126.033752441406,1,72827,0.00650865348808832,-0.00250829608637283,-0.00211179796630619,-0.00190046052303964,-0.00212143636436006,103,0.91224730014801,0.863388578411853,0.654976862976643,0.925951354718948,0.363034695386887,0.0466618351959924,0.30054787372815,0.683383221833644,-0.0360975554157383,-0.00064559218557158,-0.00124905032598851,-0.00156787028080078,-0.00227994057203485,0.854215155467523,3.2357453557067,61
144,4.76692614770459,142.426040649414,0.920407731520903,107.558959960938,0.889412192228392,93.7099685668945,0.86441998609951,125.439407348633,1,72382,0.00905071153269371,-0.00123267538273826,-0.0010571628186273,-0.00122594972325295,-0.00110784340163114,103,0.896130919456482,0.845214740312969,0.596667679809897,0.922780759571132,0.364537954330444,0.0468644424329734,0.279945290265536,0.671566425190546,-0.0378245654060394,0.000403799803874086,-0.000131498098504416,-0.000312440681048872,-0.000987837774329307,0.854215155467523,3.2357453557067,61
145,4.80026129559064,142.354965209961,0.919948416751668,107.406829833984,0.888154218092472,93.6483535766602,0.863851623631606,124.999641418457,1,71713,0.0115594581162302,-0.000312509079103826,-0.000389894626684993,-0.000544463984676814,-0.000477229869888886,103,0.879991054534912,0.812535151692627,0.489715951082788,0.914333435332517,0.363550394773483,0.0551305589555284,0.260873202906028,0.655858545120574,-0.0406388365753362,0.00116448457086994,0.000727320691707477,0.00059773749071484,-2.3375969633352e-05,0.854215155467523,3.2357453557067,61
146,4.83359644347668,142.207382202148,0.918994682864154,107.191307067871,0.886372046007937,93.1946792602539,0.859666741785214,124.008399963379,1,71976,0.00845598539784148,0.000166349237720566,-7.02657209872362e-05,3.69862135599927e-05,-0.000173945314455256,103,0.862770020961761,0.783654736764107,0.404495943092142,0.916238097662814,0.364867359399796,0.0473929426141861,0.249485939757697,0.644737769726531,-0.0488576830607483,0.00148540526138894,0.00117127501908712,0.000977556001321106,0.000433891047184018,0.854215155467523,3.2357453557067,61
147,4.86693159136273,142.190658569336,0.918886608800805,107.054962158203,0.885244600883412,93.1070785522461,0.858858676176437,123.32999420166,1,71277,0.010491431361402,0.000279026938037008,5.79223064234012e-05,0.000440418521904352,-3.77422458291829e-05,103,0.849372744560242,0.774892321506236,0.375591004110723,0.909319385086432,0.363306939601898,0.0495120239841806,0.235882542755728,0.636576235154984,-0.0481471403931159,0.00134730925818506,0.00117484748762558,0.00082708501061508,0.000388224877405998,0.854215155467523,3.2357453557067,61
148,4.90026673924878,142.246307373047,0.919246231163063,106.935623168945,0.884257778845595,92.9728546142578,0.857620538373337,122.780502319336,1,70236,0.0117972541615184,0.000205055089584452,0.00016941268185382,0.000630477427166426,9.29536228602318e-05,103,0.840729594230652,0.769681265068246,0.364926818155931,0.896130242290468,0.362031847238541,0.0514436633195963,0.223959223190387,0.630679510078254,-0.0496648169304374,0.000854686476770348,0.000835356050614019,0.00031560575385571,9.14150248210734e-06,0.854215155467523,3.2357453557067,61
149,4.93360188713482,142.720062255859,0.922307803716777,107.150604248047,0.886035471684209,93.1546325683594,0.859297334331768,121.882804870605,1,69606,0.0126361398362032,0.000144420313375883,0.000374996748578518,0.000623168604362624,0.000309317397812819,103,0.82936018705368,0.762415117470716,0.341867080424101,0.886012143429946,0.360133111476898,0.0575349091788546,0.213587909088297,0.623335066606606,-0.0439060068333444,0.000193515591922008,0.000331019229561513,-0.000287476144617264,-0.000438934403723189,0.854215155467523,3.2357453557067,61
150,4.96693703502087,143.923233032227,0.930083121206886,108.754028320312,0.899294291960116,94.6509475708008,0.873099970416183,119.707977294922,1,69195,0.00420213650338161,0.000241079936946588,0.000689847305551501,0.000478032234451196,0.000611035881513103,103,0.836657404899597,0.757872678661753,0.328679817905918,0.880780539962577,0.357848078012466,0.054479958249004,0.217891466146398,0.625600386866689,-0.0292390940944104,-0.000428559546703699,-0.000138495811968377,-0.000707554839101966,-0.000690808035097009,0.854215155467523,3.2357453557067,61
151,5.00027218290691,139.818328857422,0.903555770433001,105.513206481934,0.872495720674739,91.7790908813477,0.846608761876243,124.538345336914,1,71743,0.0116538232676669,0.000544005134390858,0.00105954210156834,0.000288225206648095,0.000947406731248873,103,0.94198477268219,0.900594250774756,0.768548847971231,0.91440115219414,0.375321239233017,0.0601715545699028,0.313814588182819,0.698750512230878,-0.0726798956063801,-0.000839902996524874,-0.000409311260031151,-0.000755067282704706,-0.000568421898718372,0.854215155467523,3.2357453557067,61
152,5.03360733079296,140.943496704102,0.910827005248072,106.496078491211,0.880623154677157,92.9922866821289,0.857799787903519,124.639305114746,1,71394,0.0144228581563689,0.00101874174551158,0.00142072117101514,0.000153366348817224,0.00127239075685465,103,0.945512294769287,0.847377464025922,0.622335210241757,0.909952969066646,0.375550001859665,0.0614206145885112,0.312547272880074,0.688535722739359,-0.0678603826541146,-0.000944232005558817,-0.000392356572588865,-0.000381264342387883,-3.37723664223938e-05,0.854215155467523,3.2357453557067,61
153,5.06694247867901,141.742477416992,0.91599030278922,107.559562683105,0.889417176178078,94.1230697631836,0.868230604498117,124.817008972168,1,71369,0.0112217112692413,0.00159458258601647,0.00175603183545915,0.000160557706458498,0.0015912037486171,103,0.945570170879364,0.84738004829361,0.622441115890653,0.909634331306797,0.375241309404373,0.0617392523483603,0.311003376816265,0.688190947366078,-0.0663519883734895,-0.000733258862984105,-8.5515478426403e-05,0.000320870579099274,0.000812758877785132,0.854215155467523,3.2357453557067,61
154,5.10027762656505,142.573333740234,0.921359591861698,108.630378723145,0.898271825218849,95.3747024536133,0.879776188488902,125.184051513672,1,71506,0.0101387730585095,0.00221019137373945,0.00210777237593118,0.000361281015388898,0.00195693673057668,103,0.946531891822815,0.756836256164984,0.351956479176573,0.91138046623077,0.374050736427307,0.0574185243248066,0.311792017453081,0.671171663787348,-0.0643310187394603,-0.000273725286726493,0.000439720090514894,0.00116244422966685,0.0017791924926169,0.854215155467523,3.2357453557067,61
155,5.1336127744511,143.547897338867,0.927657568460292,109.654594421387,0.906741132934535,96.5322875976562,0.890454238534435,125.453010559082,1,71764,0.0097381850879471,0.00282622025895584,0.00254068358307368,0.000757367007589439,0.00242690867227105,103,0.947420239448547,0.755100050164428,0.346064879326682,0.914668807912413,0.373382925987244,0.0535693801858295,0.311618638871858,0.671627696839661,-0.0625710734618108,0.000322728376560934,0.00106860724057287,0.00192917106213604,0.00265143875390432,0.854215155467523,3.2357453557067,61
156,5.16694792233714,144.450531005859,0.933490708257218,110.675224304199,0.915180789303988,97.7950057983398,0.902102079913267,125.894638061523,1,71600,0.0107181911916464,0.00340478502478079,0.0030773928383831,0.00129854431506652,0.00300354064240912,103,0.949397504329681,0.751177839851024,0.333826815642458,0.912578544207803,0.372333317995071,0.0536331077377994,0.312555865921788,0.671514819998935,-0.062387720254944,0.000934836050252768,0.00167855763638064,0.00245282042880446,0.00326259154877623,0.854215155467523,3.2357453557067,61
157,5.20028307022319,145.563293457031,0.940681774994275,111.715019226074,0.92377892265586,99.0329284667969,0.913521196921038,126.115547180176,1,71244,0.0122949773240636,0.00388308325088487,0.00364918430593242,0.00188936237239408,0.00359776424001009,103,0.949537336826324,0.751684352366515,0.334245690865196,0.908041142507552,0.372969269752502,0.0597764437476899,0.313163213744315,0.670789616429117,-0.0614075274152213,0.00146074177587031,0.00216819587475417,0.00265724475078605,0.00353647364023525,0.854215155467523,3.2357453557067,61
158,5.23361821810924,146.703079223633,0.948047476007054,112.985946655273,0.934288306080336,100.428504943848,0.92639457866838,126.701904296875,1,70945,0.010583368629212,0.00416895982711393,0.00409725041975547,0.00240618020455391,0.00404247845873412,103,0.948714673519135,0.744074047971433,0.329396010994432,0.905788774832746,0.370610237121582,0.0585388897400541,0.306434561984636,0.667914168012589,-0.0593840829725424,0.00183351388315337,0.00247277010361366,0.00256503760348857,0.00349264806294435,0.854215155467523,3.2357453557067,61
159,5.26695336599528,147.651824951172,0.954178608339967,114.076316833496,0.943304649590032,101.700149536133,0.938124760820794,127.35595703125,1,70304,0.0101833893375815,0.00416535157769698,0.00423001364307469,0.0027220079065819,0.00415474752071838,103,0.944793343544006,0.745600060688818,0.338615157032317,0.903336888226451,0.36924484372139,0.0590797538129441,0.301391101502048,0.666143807714104,-0.0578326908367622,0.00202164467165391,0.00256448382830446,0.00226686770179066,0.00321576416883897,0.854215155467523,3.2357453557067,61
160,5.30028851388133,148.999618530273,0.962888529819515,115.372772216797,0.954025125364496,102.986511230469,0.949990699684524,127.581939697266,1,70557,0.00742819963336996,0.00380922335130242,0.00390869082511515,0.00273072882628345,0.00381370127738849,103,0.931844651699066,0.748326412215183,0.354068341907961,0.909685155101725,0.368373930454254,0.0493540651349888,0.294967189648086,0.663723232875822,-0.0537796809303175,0.00201846490250813,0.00244173674983165,0.00186915977098875,0.00280492663601569,0.854215155467523,3.2357453557067,61
161,5.33362366176737,149.740509033203,0.96767642776288,115.945960998535,0.958764861515829,103.634300231934,0.955966176661041,128.759872436523,1,69564,0.00863798910555316,0.0031023560421942,0.00311553566523766,0.0023718189457311,0.00301896024721711,103,0.959298729896545,0.759281620761697,0.375654073946294,0.895646911895351,0.367575585842133,0.052131481028467,0.282861825081939,0.669912334678309,-0.0505704526237946,0.00182781534730699,0.00211462617782412,0.00144331404783863,0.00232556534233191,0.854215155467523,3.2357453557067,61
162,5.36695880965342,150.782821655273,0.974412222647306,117.181335449219,0.968980254996804,104.977973937988,0.968360785517205,129.322738647461,1,70383,0.00627283336336384,0.00211604505173511,0.00196696627956059,0.00164347254011523,0.0018919298396684,103,0.965144753456116,0.764057608608139,0.389639543639799,0.906541815324772,0.362518072128296,0.0404693517433249,0.267607234701561,0.671144060747037,-0.0441796195842322,0.00145376649950538,0.0015943921165618,0.000997384990632731,0.00178355645492709,0.854215155467523,3.2357453557067,61
163,5.40029395753947,151.766479492188,0.980768969448232,118.390716552734,0.978980707761577,106.303108215332,0.980584378920545,129.945693969727,1,70056,0.00385644876831542,0.000964602340891137,0.000662956233958696,0.000609527193728528,0.000625376998193094,103,0.947580337524414,0.768337710783754,0.396211602146854,0.903517030578949,0.35922959446907,0.0417993989966081,0.258321913897453,0.665539105477888,-0.0395153379716625,0.000899824521017093,0.000892383405277399,0.000481737622788231,0.00113216287906783,0.854215155467523,3.2357453557067,61
164,5.43362910542551,152.993469238281,0.988698213592437,119.652587890625,0.989415205764821,107.314140319824,0.989910562368013,130.189086914062,1,70343,-0.00359754908496185,-0.000239905184204891,-0.000600758890563109,-0.000610275531158162,-0.000601397358756039,103,0.921729862689972,0.772021854816163,0.402783503689066,0.905630013003232,0.357122123241425,0.0384045936168295,0.250941813684375,0.658880464393908,-0.032082938250074,0.000178413867578008,2.91289665150406e-05,-0.000174355273697515,0.000308358151073425,0.854215155467523,3.2357453557067,61
165,5.46696425331156,153.768310546875,0.993705513717327,120.51473236084,0.996544335718754,108.580909729004,1.00159577379024,130.430236816406,1,69970,0.000769303373036434,-0.00142417942629905,-0.00170936253551991,-0.00185432711540667,-0.00168545155626334,103,0.894317090511322,0.775789624124625,0.417264541946548,0.897189311176078,0.357276767492294,0.0464045750628302,0.244904959268258,0.650293457296354,-0.02630355124589,-0.000673496370413384,-0.000950515866152793,-0.00101236071676702,-0.000718598735227361,0.854215155467523,3.2357453557067,61
166,5.5002994011976,154.670013427734,0.999532638443209,121.535865783691,1.00498815589427,109.518218994141,1.0102419069,131.017532348633,1,70476,-0.00387612257255904,-0.0025549993576892,-0.00265152848665302,-0.00295010768041566,-0.00262093351554886,103,0.864500522613525,0.777654804472445,0.420838299562972,0.903480546118839,0.355947405099869,0.0406384206140632,0.240379703728929,0.643229884995406,-0.0248472051373435,-0.00158053439668013,-0.00196418779357867,-0.00200064710884566,-0.00190576435567312,0.854215155467523,3.2357453557067,61
167,5.53363454908365,155.302505493164,1.00362002712924,122.390602111816,1.01205602742865,110.646003723145,1.02064506543988,131.849075317383,1,70042,-0.00274645766638743,-0.00360238329072432,-0.00347603231753772,-0.00373680463216114,-0.00344976487774963,103,0.838784456253052,0.779575112075612,0.426986665143771,0.898481194519986,0.353408247232437,0.0468982502950382,0.236286799348962,0.635364776300972,-0.0207774170669392,-0.00242542639425675,-0.00288907781610644,-0.0030155697587396,-0.00311964528044775,0.854215155467523,3.2357453557067,61
168,5.5669696969697,156.150512695312,1.00910015128129,123.303863525391,1.01960784678633,111.424118041992,1.02782271771069,132.063873291016,1,70410,-0.007632604862607,-0.00449240951394814,-0.00421003846623958,-0.00409830204791873,-0.00419043993715244,103,0.81387585401535,0.783326232069308,0.437650901860531,0.90309754376964,0.351471036672592,0.0420701596870391,0.229924726601335,0.62938792968804,-0.0159050240455793,-0.00306191432490666,-0.00357542286154446,-0.00386031265673415,-0.00415620912636743,0.854215155467523,3.2357453557067,61
169,5.60030484485574,156.915908813477,1.01404641322624,124.104858398438,1.02623132665503,112.209808349609,1.03507025407396,132.494812011719,1,70516,-0.00998061804001663,-0.00508889162308128,-0.00479075290185142,-0.0039786616390096,-0.00477118562604997,103,0.788356900215149,0.786757615292983,0.446919847977764,0.90117445590359,0.350179702043533,0.0453168730590806,0.224417153553803,0.622073479133692,-0.0128891163547214,-0.00334434882310712,-0.00387640868103965,-0.00431661809535787,-0.00479244339156961,0.854215155467523,3.2357453557067,61
170,5.63363999274179,157.450088500977,1.01749847235921,124.797309875488,1.03195725396448,113.025833129883,1.04259760831394,132.683059692383,1,71034,-0.0105861582524494,-0.00522464472217663,-0.00505621315679663,-0.00339456138068567,-0.00502712438591199,103,0.765258073806763,0.78820940207037,0.453191429456317,0.906230863441519,0.349031507968903,0.0410798122065728,0.219303432159248,0.616244315344563,-0.00992563064203298,-0.003167512874864,-0.003688079875703,-0.00421334976343855,-0.00485378866070357,0.854215155467523,3.2357453557067,61
171,5.66697514062784,158.432983398438,1.02385028877403,125.449089050293,1.03734685930207,113.638671875,1.04825068949236,133.326049804688,1,70956,-0.0103156807334781,-0.00477034893699949,-0.00480867782109756,-0.00243108654853193,-0.00476215142108039,103,0.962083458900452,0.792387770825112,0.460863070071594,0.905836695092682,0.346569299697876,0.0438773425930654,0.3869581148881,0.699369667052865,-0.00274252129589966,-0.00250469713098449,-0.00298715933486367,-0.00348861935627211,-0.004274932114172,0.854215155467523,3.2357453557067,61
172,5.70031028851388,158.401824951172,1.02364893180564,125.660774230957,1.03909729813734,113.91268157959,1.05077826973441,133.274993896484,1,70888,-0.0114955855184913,-0.00370658893450621,-0.00392356175433775,-0.00122780019186779,-0.00385807452030367,103,0.962321698665619,0.793951961780085,0.467060715494865,0.902709861450693,0.344134420156479,0.0459071923390383,0.368228755219501,0.695671417292076,-0.00295518633600539,-0.00143037954424852,-0.00185326202524282,-0.00222200799366756,-0.00313104418023065,0.854215155467523,3.2357453557067,61
173,5.73364543639993,158.743301391602,1.02585567401704,125.933082580566,1.04134903398786,114.419403076172,1.05545248098141,133.184524536133,1,70651,-0.00756607782417842,-0.00216431912344224,-0.00244950225202841,4.66635906311704e-05,-0.00237087101005872,103,0.950620830059052,0.797587200936057,0.477233160181738,0.895200324370898,0.344576567411423,0.0512151237931122,0.350568286365373,0.689091885168151,-0.000731105646434457,-0.000116982925998057,-0.000465008499811827,-0.000625977629257063,-0.00162917379648399,0.854215155467523,3.2357453557067,61
174,5.76698058428597,159.140182495117,1.02842046086715,126.316535949707,1.04451983539565,114.707481384277,1.05810983591276,132.82145690918,1,70941,-0.00997935182413867,-0.000414939446232486,-0.000644514231277714,0.00122073854413887,-0.000565462455569971,103,0.931081354618073,0.800435103348792,0.484402531681256,0.898385360602799,0.344444513320923,0.0460583802950674,0.335461862674617,0.682580391011989,-0.000101925430883413,0.00119724702506154,0.000932754819820472,0.001003708200363,-5.94475753834456e-05,0.854215155467523,3.2357453557067,61
175,5.80031573217202,159.331787109375,1.02965867803273,126.561485290527,1.0465453377832,115.02326965332,1.06102279912587,132.626922607422,1,71219,-0.00970157731889021,0.00118957569882387,0.00108024435322277,0.00215062166934105,0.00114753002967244,103,0.912067532539368,0.801892753338295,0.489125093022929,0.898356395928201,0.344505816698074,0.0465204283714066,0.32510987236552,0.67597413973618,0.000103784026653998,0.0022626879104967,0.00208403655530033,0.00236465122618019,0.00128054446269787,0.854215155467523,3.2357453557067,61
176,5.83365088005807,159.52082824707,1.03088032910101,126.647552490234,1.04725703318076,115.104110717773,1.06176851095225,132.33528137207,1,71333,-0.00922635486205681,0.0023114900497842,0.00229555220733323,0.00273904078073302,0.00234665118651122,103,0.895452260971069,0.804157963354969,0.494651844167496,0.896278333417098,0.343434035778046,0.0471176559280293,0.318604292543423,0.670876691473961,0.00146126194495375,0.00288028798216502,0.00278410374231648,0.00322585264091741,0.00216278640928842,0.854215155467523,3.2357453557067,61
177,5.86698602794411,159.775100708008,1.03252352818098,126.814117431641,1.04863436975726,115.442176818848,1.06488697421567,132.390625,1,70809,-0.00600291407246201,0.00273137942925446,0.0027155155923737,0.0029493916147348,0.00276072024687664,103,0.882197082042694,0.805843889901001,0.50095326865229,0.892070651078412,0.344325125217438,0.0497631525902036,0.313773672838199,0.666510678644081,0.00450121472685171,0.00295253659816198,0.00293074821572898,0.00348346888633007,0.00248407333088923,0.854215155467523,3.2357453557067,61
178,5.90032117583016,160.018478393555,1.03409632134743,127.151039123535,1.0514203976317,115.648941040039,1.0667942539634,132.158233642578,1,71587,-0.0096918929148806,0.00242676712818192,0.00231486097355656,0.00280359368256265,0.00237492702622437,103,0.865285873413086,0.807665265108656,0.505594591196726,0.899628019202252,0.344087779521942,0.042928594767135,0.308114601813178,0.662608866574897,0.00433264367813509,0.00250746391753097,0.00254845175589166,0.00317905901238061,0.00228439470599917,0.854215155467523,3.2357453557067,61
179,5.9336563237162,160.340606689453,1.03617802896729,127.478904724121,1.05413154008492,115.952323913574,1.06959278461424,132.248382568359,1,71459,-0.0108971957522832,0.00158962810308975,0.00134551682453441,0.00237393174650451,0.00144028897228048,103,0.84630811214447,0.809102655602047,0.509285044571013,0.898934497377127,0.342764139175415,0.0459914709471274,0.301921381491485,0.656423200103283,0.00528369359378797,0.00168781949308801,0.0017776270898659,0.00247536131809984,0.00172317792898704,0.854215155467523,3.2357453557067,61
180,5.96699147160225,160.699645996094,1.03849826866675,127.858840942383,1.05727325793821,116.312202453613,1.07291245494746,132.504318237305,1,70963,-0.0122563489640157,0.000564527331513915,0.000238333404693746,0.00176211147392249,0.000370730299490261,103,0.828801870346069,0.812836736515273,0.519792004283923,0.895488674364313,0.342594385147095,0.0452899236544892,0.295463833265223,0.651614193757898,0.00532254302545516,0.000708651952955011,0.000832164798967651,0.00159852160696059,0.0010218429468049,0.854215155467523,3.2357453557067,61
181,6.0003266194883,161.97380065918,1.04673230927976,128.722061157227,1.06441128329601,117.008842468262,1.07933855412333,132.670303344727,1,71814,-0.0140838230362761,-0.000276662729480019,-0.000571190549621478,0.00107877725514763,-0.000421397815836547,103,0.95977783203125,0.81459975306579,0.526596485364971,0.904242057945832,0.340281903743744,0.0478978581951422,0.465898014314758,0.718380354172699,0.0177395482030133,-0.000203325614927797,-6.1252578374362e-05,0.000768711431162301,0.000394478214812821,0.854215155467523,3.2357453557067,61
182,6.03366176737434,161.889373779297,1.04618671275375,128.82666015625,1.06527621937442,117.073318481445,1.07993330786482,132.890182495117,1,71987,-0.016389482483645,-0.000674350754311166,-0.000816724834506504,0.000421982256343413,-0.000684905292392059,103,0.960190296173096,0.816753950944847,0.531151457902121,0.90846794548208,0.338002175092697,0.0424533064109036,0.444302443496742,0.715466323905847,0.0154489163567161,-0.000869670271789046,-0.00072319300221896,0.000142027788826139,-1.04761747992285e-05,0.854215155467523,3.2357453557067,61
183,6.06699691526039,161.894744873047,1.0462214226719,128.976058959961,1.06651160801683,117.365257263184,1.08262627342133,133.25048828125,1,71719,-0.0153218994753379,-0.000573827820901331,-0.000496075737491532,-0.000137131962450002,-0.000411277130208592,103,0.94885116815567,0.82070766928336,0.53731925988929,0.907203845424072,0.335761189460754,0.0410473720827272,0.424978039292238,0.709782354220801,0.0185564965414599,-0.00120139970949516,-0.0010627465013519,-0.000220704806535465,-0.000141764893399345,0.854215155467523,3.2357453557067,61
184,6.10033206314643,162.014663696289,1.04699638075937,129.039794921875,1.06703864492413,117.387367248535,1.08283022518358,133.346435546875,1,71567,-0.015765082378174,-0.000127525887197922,0.000154553896671266,-0.000562075247053315,0.000189434696088278,103,0.932698011398315,0.823368312210935,0.5459080302374,0.903555286215691,0.334353655576706,0.0392394515567002,0.410370701580337,0.703643993358761,0.0196982376106109,-0.00121040198449062,-0.0010891004669799,-0.000350883619814695,-4.21619023289693e-05,0.854215155467523,3.2357453557067,61
185,6.13366721103248,162.319900512695,1.04896892963094,129.122589111328,1.06772327558225,117.610664367676,1.08489001130426,133.354431152344,1,70780,-0.0118977221030807,0.00039429444028959,0.000790887109304757,-0.000846824324071874,0.000805935470711762,103,0.912079572677612,0.829937835546765,0.559183385137044,0.897346501515017,0.334127455949783,0.0462365455075624,0.39988697372139,0.696587007741824,0.0239356817415757,-0.000990248594175897,-0.000892564366912078,-0.000340615617375465,0.000183856558527818,0.854215155467523,3.2357453557067,61
186,6.16700235891853,162.434371948242,1.04970868476164,129.34733581543,1.06958172102337,117.729423522949,1.08598549547655,133.533660888672,1,70911,-0.0150362638629075,0.000739566093498521,0.00112903185422532,-0.00100962270606373,0.00117004541852084,103,0.892097115516663,0.83273869122327,0.565807843634979,0.902508559137595,0.33230721950531,0.0405747667714551,0.391236902596212,0.691327434959629,0.0247419050950384,-0.000675454797699836,-0.00060414058376434,-0.000297276008112854,0.000417074223276292,0.854215155467523,3.2357453557067,61
187,6.20033750680457,162.630874633789,1.05097855500599,129.59326171875,1.07161529867118,118.07266998291,1.08915174453933,133.622909545898,1,71046,-0.014275877097793,0.000788518228229848,0.00106929350177982,-0.00107683756455558,0.00116984104536576,103,0.86890834569931,0.83622347962353,0.577513160487571,0.903134772328579,0.331243306398392,0.0431571453995373,0.380964445570475,0.683759528199703,0.0288564975668023,-0.000394175268835318,-0.000348560340470037,-0.000301611557390782,0.000567310625526477,0.854215155467523,3.2357453557067,61
188,6.23367265469062,162.850372314453,1.05239702708745,129.824691772461,1.07352900917464,118.298141479492,1.09123158802794,133.793731689453,1,71220,-0.014986868167236,0.000591002240332079,0.000718890204486658,-0.00107391284095804,0.000873688721195599,103,0.846365749835968,0.839665824206683,0.588472339230553,0.907897252852317,0.330267429351807,0.0431894958251004,0.371173827576523,0.676849048483617,0.0313724176320803,-0.000229777051500738,-0.000206307891618365,-0.000384429817556456,0.000598170642604472,0.854215155467523,3.2357453557067,61
189,6.26700780257667,163.168075561523,1.05445013846793,130.071395874023,1.07556902179546,118.586761474609,1.09389393970709,133.946380615234,1,71382,-0.014301120104347,0.000315222358643736,0.000311502792436977,-0.00101435310176131,0.000474414076754567,103,0.825073480606079,0.844806814042756,0.605166568602729,0.908387523701658,0.329966008663177,0.0438910169124852,0.361996021405957,0.670606374535265,0.0342269499421116,-0.000201891952232826,-0.000195032598005501,-0.000525800694564261,0.000528318085032589,0.854215155467523,3.2357453557067,61
190,6.30034295046271,163.523483276367,1.05674690952954,130.398025512695,1.07826994399741,118.758117675781,1.09547460105295,133.808792114258,1,71770,-0.0175037931105803,0.00014285976630476,7.42286683955202e-05,-0.000899900337791141,0.000180350425595562,103,0.800333082675934,0.84963076494357,0.61655287724676,0.913057859650908,0.328808933496475,0.0441835021118518,0.350327434861363,0.663005550292074,0.0352321972752167,-0.00027001992070801,-0.000273433261497932,-0.000672237850606673,0.000413569882085217,0.854215155467523,3.2357453557067,61
191,6.33367809834876,164.221969604492,1.06126077661337,130.754470825195,1.0812174139889,119.113410949707,1.0987519749717,134.732650756836,1,71309,-0.0158269088641144,0.000171308161889549,0.000115463498321458,-0.000722605784509493,0.000119557130666042,103,0.961956918239594,0.855773231055454,0.629962557320955,0.911110827179107,0.326327264308929,0.0481435105920834,0.370668499067439,0.708074613889744,0.0446634601420185,-0.000355241773505084,-0.000363041768287583,-0.000763005855731591,0.00031880091177169,0.854215155467523,3.2357453557067,61
192,6.3670132462348,163.791152954102,1.05847668618946,130.338607788086,1.07777861488154,118.762580871582,1.09551577143974,134.591110229492,1,70965,-0.0138566023847778,0.000375960409734773,0.00038959776330646,-0.000475697177057277,0.000293794271126044,103,0.964444756507874,0.861856783860589,0.643190305079969,0.906982094244853,0.324561536312103,0.0521708012218345,0.359571619812584,0.707049541666109,0.045015991704128,-0.000370902467961628,-0.000378820580099647,-0.000754121464322279,0.000291768896645646,0.854215155467523,3.2357453557067,61
193,6.40034839412085,163.195678710938,1.05462851983708,129.721618652344,1.07267669069037,118.161842346191,1.0899743077544,134.211975097656,1,70444,-0.0119995686390798,0.000647775176537473,0.000747654265625226,-0.000162041150075725,0.000602830479162924,103,0.963422536849976,0.861445498078852,0.648202827778093,0.900323351609729,0.323966234922409,0.0615646128088136,0.357589006870706,0.704812197152995,0.0427549354332751,-0.000252080844885811,-0.000258208083246496,-0.000630764633260034,0.000349092699759475,0.854215155467523,3.2357453557067,61
194,6.4336835420069,163.455352783203,1.05630662605066,129.493942260742,1.0707940194685,117.609909057617,1.08488304400804,133.814163208008,1,69829,-0.0134883574552033,0.000874568629487012,0.00103452769099043,0.000196593954571612,0.00090977186198165,103,0.952836811542511,0.869715065851342,0.664637901158544,0.89031262749898,0.3230220079422,0.0694869441044472,0.345214738862077,0.7000772527716,0.0504703643577581,2.38372825098152e-05,1.88010227279202e-05,-0.000406602943411472,0.00047656121521546,0.854215155467523,3.2357453557067,61
195,6.46701868989294,162.822341918945,1.05221588470208,128.946594238281,1.06626796227395,117.136001586914,1.08051152307486,133.837936401367,1,69360,-0.0115900597769264,0.00100859585998002,0.00117120831563475,0.000558653248514642,0.00111240782656961,103,0.95150226354599,0.868021914648212,0.663350634371396,0.884332925336597,0.323310673236847,0.0775448796409629,0.344982698961938,0.698069307865974,0.0489939242024941,0.000429285330582243,0.000422368948850743,-0.000115799745848373,0.000638092690352999,0.854215155467523,3.2357453557067,61
196,6.50035383777899,162.356918334961,1.04920815196459,128.423645019531,1.06194366040974,116.486450195312,1.07451978907381,133.689666748047,1,69574,-0.0121451482233327,0.00107596687615402,0.00117591160740996,0.000865713063213167,0.00117767974458797,103,0.952165842056274,0.869160893437204,0.665694081122258,0.887061403508772,0.322589933872223,0.074969400244798,0.344769597838273,0.698832454729996,0.0485110768124374,0.000891231500132801,0.000877956826695644,0.000196147966703047,0.000786867392504995,0.854215155467523,3.2357453557067,61
197,6.53368898566503,162.07080078125,1.04735915856873,127.971237182617,1.05820266992268,115.731414794922,1.06755502640991,133.42236328125,1,69256,-0.0150974517580788,0.00112613844564101,0.00111974460879097,0.00105452510576753,0.00113096155212197,103,0.953081011772156,0.870206191521312,0.665963959801317,0.883006935944512,0.322305917739868,0.0808981028151775,0.344258981171306,0.698219591031134,0.0512246976984201,0.00130605771857429,0.00128149428463167,0.000479283192789544,0.00087452863300842,0.854215155467523,3.2357453557067,61
198,6.56702413355108,161.603881835938,1.04434176227449,127.361282348633,1.05315891284051,115.163497924805,1.06231632341513,133.531448364258,1,69782,-0.0119228076327235,0.00116270674253123,0.00105343743842091,0.00107228607566592,0.00101274742499869,103,0.953717470169067,0.868585977281629,0.661202029176578,0.889713382292942,0.322200655937195,0.0702901876784986,0.346865953970938,0.700273323764221,0.049833358701839,0.00156120619730878,0.00152101654511529,0.000681033101690174,0.000854600685216188,0.854215155467523,3.2357453557067,61
199,6.60035928143713,161.107299804688,1.04113267256861,126.811920166016,1.0486162004217,114.655784606934,1.05763296319328,133.594802856445,1,70257,-0.00955412373155029,0.00111034892759673,0.000956728099658139,0.000890573479148693,0.000833585050938843,103,0.949149549007416,0.963149579401341,0.927195866604039,0.895769583843329,0.322367548942566,0.0689514483884129,0.345858775638015,0.718056826517579,0.0496441304464845,0.00156021576369938,0.00150146124275716,0.000746603185829477,0.000683002755792578,0.854215155467523,3.2357453557067,61
200,6.63369442932317,160.621200561523,1.03799132636777,126.282112121582,1.04423518247181,114.065017700195,1.05218348189348,133.381500244141,1,70431,-0.00906396727498024,0.000846663528286711,0.000743588301270317,0.000518117115455178,0.000558660585274653,103,0.955110967159271,0.961981703132617,0.924351492950547,0.897393099230416,0.323125809431076,0.0668034249018908,0.351492950547344,0.720784124541507,0.0481784053097727,0.00124759060317124,0.00116916853592348,0.0006261501456712,0.000323991196615749,0.854215155467523,3.2357453557067,61
201,6.66702957720922,160.157897949219,1.03499730010365,125.732727050781,1.03969228078909,113.404914855957,1.04609441687545,133.23747253418,1,69955,-0.00907594913511542,0.000280430129961986,0.000318639669425013,3.78332637708352e-06,0.000128694572261085,103,0.9487664103508,0.957215352726753,0.918404688728468,0.891328168798736,0.325636774301529,0.0743081392385709,0.333314273461511,0.713408225547181,0.0500898856532666,0.00062917706203122,0.000531909162274764,0.000290346771345705,-0.000236583610963463,0.854215155467523,3.2357453557067,61
202,6.70036472509526,159.799514770508,1.03268130053624,125.469039916992,1.03751183434547,113.041084289551,1.04273829139633,132.429443359375,1,71739,-0.0108825615415463,-0.000574967456342499,-0.000351634574837988,-0.000569244512505727,-0.00049280053922002,103,0.945867478847504,0.954102138771565,0.912418628639931,0.908134589093119,0.329959571361542,0.061787938629804,0.318432094118959,0.711087646109212,0.0465426760137402,-0.000217245482298652,-0.00033082001614775,-0.00024861019449237,-0.000972817347237746,0.854215155467523,3.2357453557067,61
203,6.73369987298131,159.082244873047,1.02804604734658,124.775871276855,1.03177997676679,112.238235473633,1.03533247776829,131.951553344727,1,72170,-0.0113543157839949,-0.00157936824429005,-0.00119573137581067,-0.00109723128227598,-0.0012727469626084,103,0.937795519828796,0.95448247194125,0.912262713038659,0.911467542308664,0.330166667699814,0.0597499368527406,0.303907440764861,0.706566872601983,0.0437475767405068,-0.00114639790719042,-0.00127229553048937,-0.000918350726899449,-0.00180194947981102,0.854215155467523,3.2357453557067,61
204,6.76703502086736,158.325012207031,1.02315254053292,124.071823120117,1.02595815574187,111.421653747559,1.02779998602705,131.805694580078,1,72390,-0.0120632194137021,-0.00250637291517435,-0.00204529420363247,-0.00147719239645194,-0.00208978409987681,103,0.919491291046143,0.953184141456002,0.909006768890731,0.913300194292347,0.331075042486191,0.0585652645656178,0.292623290509739,0.699663866824185,0.0418912730757407,-0.00196826179031233,-0.00210134547651407,-0.0015823350510947,-0.00258108092946837,0.854215155467523,3.2357453557067,61
205,6.8003701687534,157.549438476562,1.01814050723737,123.18285369873,1.01860720848292,110.360946655273,1.01801557969343,131.596206665039,1,71544,-0.0121495740238292,-0.00312102738874667,-0.00268793655356178,-0.00162831240553468,-0.00275428219117968,103,0.905473530292511,0.954615341607961,0.913535726266354,0.906607192640089,0.329521745443344,0.0664647591048483,0.281113720228111,0.692879833483567,0.0394065619474131,-0.0024878703586208,-0.0026220313374284,-0.00205965214836271,-0.00312651433772356,0.854215155467523,3.2357453557067,61
206,6.83370531663945,157.003982543945,1.01461557699782,122.358222961426,1.01178828208096,109.577484130859,1.0107885933352,131.211853027344,1,71436,-0.00750234914742071,-0.00325437877315404,-0.00293713043640995,-0.00150949677925193,-0.0030617994934762,103,0.900196254253387,0.838363476865073,0.58061761576796,0.904539411206078,0.332171499729156,0.0538524849635961,0.27862702278963,0.669830765900112,0.0349701399271807,-0.00255491371957998,-0.00268323420564633,-0.00217062824361361,-0.00325833129120387,0.854215155467523,3.2357453557067,61
207,6.86704046452549,156.154174804688,1.00912381713458,121.726600646973,1.00656535516198,108.803611755371,1.00365007052602,131.008499145508,1,72610,-0.0100965637946358,-0.00284668183993805,-0.00268970765126901,-0.00113145524897171,-0.00286420064777756,103,0.867039144039154,0.952518018638388,0.907753752926594,0.920944154839364,0.333310335874557,0.0551983054931953,0.266106596887481,0.681652980236051,0.030503001718341,-0.00211040090075376,-0.00222540623995155,-0.00179653855222002,-0.00285905533378641,0.854215155467523,3.2357453557067,61
208,6.90037561241154,155.437637329102,1.00449329711558,120.850051879883,0.999317115119348,107.934204101562,0.995630290309319,130.424026489258,1,72786,-0.00678895532888629,-0.00195480978006051,-0.0019547273501126,-0.000552654969988372,-0.00212612130512726,103,0.850626528263092,0.951703166359831,0.908045503256121,0.923422394762883,0.335684269666672,0.0538808961964934,0.258030390459704,0.675982400038241,0.0243593058957436,-0.00121528976590179,-0.00130936764873685,-0.00093349334266733,-0.00192700479196533,0.854215155467523,3.2357453557067,61
209,6.93371076029759,154.593353271484,0.99903723324771,119.83145904541,0.990894303238074,106.777610778809,0.984961389238629,130.121353149414,1,72568,-0.00555182096734558,-0.000735335359055031,-0.000853260259819947,0.000128231222559608,-0.000957133567945162,103,0.832102537155151,0.953404622790578,0.911434792194907,0.920761803255808,0.335924386978149,0.0570210498268052,0.245852166244075,0.66875362412343,0.0234754152891194,-4.87179783238962e-05,-0.000114797107762756,0.000280416457410301,-0.000603791906601763,0.854215155467523,3.2357453557067,61
210,6.96704590818363,153.475799560547,0.991815203685934,118.864730834961,0.982900363381674,105.830574035645,0.976225525798687,129.647338867188,1,72984,-0.00409704690563079,0.000584770308762506,0.000403455817448856,0.00079481964467076,0.000403397260510545,103,0.811791479587555,0.949778946983814,0.903759728159597,0.924948673104707,0.339026868343353,0.0514536283679315,0.234544557711279,0.661579990297038,0.0162176630484173,0.00112872783077774,0.00109632986963751,0.00158336511466446,0.000843212793861393,0.854215155467523,3.2357453557067,61
211,7.00038105606968,152.48974609375,0.985442975472648,117.602172851562,0.972460187461065,104.465637207031,0.963634776997247,130.957366943359,1,70975,-0.000940238811306698,0.00174577637497444,0.00155161855323883,0.00133515801153441,0.00163901594625,103,0.963246524333954,0.818043912175649,0.532215568862276,0.899385414686688,0.332204580307007,0.0429195970347843,0.270560056357873,0.681665289264627,0.00295926282276184,0.00204014894641822,0.00204487460801306,0.00265413777636287,0.00208461006261162,0.854215155467523,3.2357453557067,61
212,7.03371620395573,152.053985595703,0.982626936146798,117.154388427734,0.968757428284263,103.974838256836,0.959107441984829,129.942459106445,1,71453,-0.000560541913983831,0.00250259970365353,0.00232699539742095,0.00166354829615687,0.00244050573818668,103,0.949478030204773,0.811087941257423,0.524260702839629,0.904972389685394,0.337425827980042,0.0429986321495517,0.255258701524079,0.673759054963565,0.00553762742823079,0.00246869945273604,0.00251109980722016,0.00320599288503531,0.00282287706436278,0.854215155467523,3.2357453557067,61
213,7.06705135184177,151.531433105469,0.979250016098019,116.490669250488,0.963269090272508,103.211654663086,0.952067516973758,129.127426147461,1,71513,0.000286046773236598,0.00268127445677279,0.0025298722995133,0.00173713110076879,0.00259917574441969,103,0.928340256214142,0.813274043414018,0.51899654608253,0.901166893492616,0.341541767120361,0.0487549775694339,0.236404569798498,0.664219990284929,0.00674268647035173,0.00232198520130002,0.00239954875667427,0.00308109834307789,0.00288795456041276,0.854215155467523,3.2357453557067,61
214,7.10038649972782,150.60758972168,0.973279811567466,115.815895080566,0.957689337791196,102.611595153809,0.946532316817351,128.969818115234,1,71655,0.00130164748626679,0.00223533322035033,0.00209220843450022,0.00156103674724537,0.00207985879786365,103,0.909689009189606,0.809168934477706,0.50709650408206,0.901865277148467,0.344788819551468,0.0467074460051352,0.222245481822622,0.656231944196645,0.00285249554906143,0.00166264053610885,0.00177006980036279,0.0023102159513119,0.00229885121557414,0.854215155467523,3.2357453557067,61
215,7.13372164761386,150.182571411133,0.970533192077929,115.155700683594,0.952230146421908,101.776824951172,0.938832046952844,128.315505981445,1,71581,0.00153453086878705,0.00128313547114446,0.00112389514941519,0.00118436914967171,0.00104861353418312,103,0.891360700130463,0.809525805264898,0.504491415319708,0.904988874279357,0.345278710126877,0.0429604531202589,0.21015353236194,0.649902370058742,0.000440025339710996,0.000692747442793044,0.000822696775575452,0.00111327254832929,0.00126633963012461,0.854215155467523,3.2357453557067,61
216,7.16705679549991,150.113555908203,0.970087189351169,114.868133544922,0.949852234629977,101.259315490723,0.934058323010246,127.311233520508,1,71350,-0.000160287874271692,0.000102609231406493,-9.0543689195045e-05,0.00068637926599628,-0.000165354162186471,103,0.877074837684631,0.809138051857043,0.500448493342677,0.899475568554284,0.343840360641479,0.0436185769754425,0.200462508759636,0.644209849228423,-0.00273375457749985,-0.000305641181201152,-0.000161524312682785,-0.000163982712811358,0.000131192246653608,0.854215155467523,3.2357453557067,61
217,7.20039194338596,150.128387451172,0.970183036056986,114.585075378418,0.947511607828734,100.921653747559,0.930943589713502,126.506881713867,1,70464,0.00173550117676835,-0.000932974593960916,-0.00116270589279858,0.000158799584617273,-0.00116764235464213,103,0.86548912525177,0.810333409022101,0.49987227520436,0.89165591071293,0.343156456947327,0.0509326044592919,0.190040304268846,0.638297807257645,0.000128177267866379,-0.00105647502895122,-0.000906463379023516,-0.00116027467157492,-0.000745852353576315,0.854215155467523,3.2357453557067,61
218,7.233727091272,150.011260986328,0.969426123182653,114.359214782715,0.94564395154389,100.63614654541,0.92830995174001,125.618431091309,1,70012,0.0020289985767612,-0.00147335382016567,-0.00172871366548178,-0.000314280713335907,-0.00163154536742141,103,0.856357336044312,0.810299186806071,0.495772153345141,0.8852529492837,0.342833638191223,0.0505772124369365,0.182483002913786,0.63455341796514,-0.00336940603776297,-0.00137470718338979,-0.00122613050090318,-0.00161895286726973,-0.00110547636525797,0.854215155467523,3.2357453557067,61
219,7.26706223915805,149.844879150391,0.968350904581593,114.243965148926,0.944690944658373,100.338348388672,0.925562936855202,124.962364196777,1,69943,-0.00121767539505235,-0.00132900227592905,-0.00159217148981965,-0.000671005606353217,-0.00141684131725915,103,0.845680356025696,0.811270129486391,0.493001444032998,0.884436407779267,0.341835230588913,0.0500366707974002,0.17464220865562,0.630596689307242,-0.00110347479261047,-0.00122187040973026,-0.00108057802667056,-0.00147348172602901,-0.000877416948820459,0.854215155467523,3.2357453557067,61
220,7.30039738704409,149.674850463867,0.967252118734967,113.922439575195,0.942032228308819,99.7497863769531,0.920133794430237,124.377624511719,1,69623,-0.00396459005744698,-0.000568423853549587,-0.000818666587419251,-0.000881079028565831,-0.000630265565769642,103,0.834225475788116,0.811149572219908,0.490958447639429,0.883462128998693,0.338623940944672,0.0476226731127945,0.165476925728567,0.626262040838677,-0.00103286212577078,-0.000712957120433847,-0.000583173143143632,-0.000866643633663542,-0.000201862143573016,0.854215155467523,3.2357453557067,61
221,7.33373253493014,146.835021972656,0.948900136979483,111.546844482422,0.922388274517541,97.9522705078125,0.903552755439631,128.144836425781,1,71373,0.00803679882399957,0.000485043921234514,0.000271383440276412,-0.000943969376776981,0.000409154916013721,103,0.956873118877411,0.798504569888707,0.473568436243397,0.903833246799296,0.347410589456558,0.0523509820557955,0.27710758970479,0.675964554509125,-0.0275201416633809,-7.16957942233083e-05,4.38054033402926e-05,-9.71822880240048e-05,0.000622246921498745,0.854215155467523,3.2357453557067,61
