frame_index,time_s,R_skin_raw,R_normalized,G_skin_raw,G_normalized,B_skin_raw,B_normalized,frame_luminance,face_detected,skin_pixel_count,BVP_detrended,BVP_butterworth,BVP_cheby1,BVP_cheby2,BVP_elliptic,gt_bpm,bisenet_conf,vote_mean,highconf_pct,roi_coverage,green_cv,hair_rej_frac,clust_agree,quality_score,BVP_pca,BVP_ham_tight,BVP_ham_adapt,BVP_el_tight,BVP_el_adapt,f_p1_adapt,f_p2_adapt,N_ham_mid
1,0,155.374877929688,1.0046485198155,120.881980895996,1.00061154810332,108.435073852539,1.00166659082685,128.131149291992,1,67591,-0.000912740762622183,-0.000453167080364597,-0.000592439268463791,0.000273007521557365,-0.000557457092405638,NaN,0.969325602054596,0.766423537650476,0.370315574558743,0.882481199080844,0.357348650693893,0.0658032170461667,0.387329674069033,0.692553528130164,-0.00145212169002936,-1.01759469769111e-08,-5.54770673380548e-09,3.17603544197857e-05,0.000101303753069984,0.857877065500659,3.2357453557067,61
2,0.0333351478860461,155.29621887207,1.00413991310341,120.877418518066,1.00057378260669,108.547119140625,1.00270160669162,128.084014892578,1,67872,0.000463586196266547,0.000122495081060243,-9.16514063923791e-05,0.000393627017314149,-8.98150340345056e-05,NaN,0.969478189945221,0.76538189533239,0.369224422442244,0.886149989555045,0.358186632394791,0.0610246500940046,0.387862446958982,0.693254471929539,-0.00354076131005708,0.0004958640060776,0.000490322264571581,0.000638324191248843,0.000596345660527483,0.857877065500659,3.2357453557067,61
3,0.0666702957720922,155.296417236328,1.00414119571976,120.851821899414,1.00036190427688,108.537002563477,1.00260815503448,128.15055847168,1,67833,0.000982985621256732,0.000524999723505036,0.000259202212155136,0.000478143192163072,0.000239107179922859,NaN,0.96935623884201,0.76537476842638,0.368625890053514,0.885640797994569,0.358353853225708,0.0618863588886568,0.388144413486061,0.693141078670806,-0.00236766477088452,0.00085450981554061,0.000843573793570995,0.00106705335503235,0.000912075756705936,0.857877065500659,3.2357453557067,61
4,0.100005443658138,155.284713745117,1.00406552135542,120.893676757812,1.00070836165909,108.545356750488,1.0026853266518,128.193542480469,1,67913,-6.9082921202307e-05,0.000642318928833427,0.000380070791854541,0.000516835539156091,0.000356792126124175,NaN,0.969215333461761,0.76546954682216,0.369605230221018,0.886685293503238,0.358167231082916,0.0610115939001462,0.388143654381341,0.693264618582117,-0.00266898613951439,0.000980138197603005,0.000964045866085605,0.00120111176533953,0.000935994902103576,0.857877065500659,3.2357453557067,61
5,0.133340591544184,155.321029663086,1.0043003388093,120.850456237793,1.00035059988909,108.458160400391,1.00187985230082,128.170837402344,1,67947,-8.13100135619582e-05,0.000468600454878452,0.000273176250762331,0.000508526020178173,0.000257685520654904,NaN,0.968800604343414,0.764816695365505,0.367698353128173,0.88131833923499,0.358551472425461,0.0655278415502549,0.385800697602543,0.691839175031423,-0.00403387277773944,0.000847086155709032,0.000826071319446408,0.00101429482688979,0.000644741492254534,0.857877065500659,3.2357453557067,61
6,0.16667573943023,155.413421630859,1.00489774203757,120.864334106445,1.00046547520412,108.376449584961,1.00112505045473,127.81876373291,1,67985,-0.00107748522183801,9.5356438670603e-05,1.21681896331907e-05,0.000458904176898268,-2.10273072791666e-06,NaN,0.96888929605484,0.768017454830722,0.373214679708759,0.88181122482068,0.357530653476715,0.0650608973111794,0.383908215047437,0.692197714419553,-0.00228194519872675,0.000506842178156214,0.000481089416083739,0.000577224481474083,0.000110684347324957,0.857877065500659,3.2357453557067,61
7,0.200010887316277,155.457702636719,1.00518406147083,120.826942443848,1.00015596232949,108.415962219238,1.00149004753791,127.92064666748,1,67663,0.000920768521763454,-0.000333258370059984,-0.000292744320696069,0.000378739478997723,-0.000324833657238793,NaN,0.968670666217804,0.767238618841415,0.373601525205799,0.877634668015617,0.357242226600647,0.0691077473831667,0.38464153229978,0.691486457201383,-0.00151542517744122,7.10928872730289e-05,4.08333619577018e-05,3.28302382642922e-05,-0.000521398386906586,0.857877065500659,3.2357453557067,61
8,0.233346035202323,155.464233398438,1.00522628914741,120.978561401367,1.00141100198619,108.371574401855,1.00108001605887,127.825859069824,1,67818,-0.00377004212827015,-0.000676481374039455,-0.000534902592583037,0.000277322212974132,-0.00060330034788901,NaN,0.968325853347778,0.766325557619904,0.372629685334277,0.879645122378303,0.357235580682755,0.0675901786061714,0.383600224129287,0.691252191109796,-0.00270623879860774,-0.000324174324180317,-0.00035846050648797,-0.000450284168571572,-0.00107948188086042,0.857877065500659,3.2357453557067,61
9,0.266681183088369,155.53581237793,1.00568911632228,120.96508026123,1.00129941062739,108.548194885254,1.00271154385878,127.966567993164,1,67516,8.31006659193778e-05,-0.000839708037345642,-0.000639742725418077,0.000162541548562123,-0.000745761294824597,NaN,0.968028426170349,0.765581491794538,0.372356182238284,0.875727979039392,0.357334107160568,0.0732453921683075,0.383568339356597,0.690117810025885,-0.000974277600565426,-0.00056237616538519,-0.00059961019097061,-0.000732470893685176,-0.00141803158452016,0.857877065500659,3.2357453557067,61
10,0.300016330974415,155.53092956543,1.00565754422764,121.025733947754,1.00180147701248,108.555778503418,1.00278159736345,127.902816772461,1,67805,-0.00142626850568783,-0.000790960683676257,-0.000575419318735143,3.45178292933086e-05,-0.000701472048096347,NaN,0.968002796173096,0.7645503035666,0.370680628272251,0.879476503625303,0.356733798980713,0.0685629791042453,0.384307941892191,0.690802271478353,-0.000677841144801957,-0.000584084625302605,-0.000622301089674113,-0.000748504442014942,-0.00146382642560177,0.857877065500659,3.2357453557067,61
11,0.333351478860461,155.162780761719,1.00327710695458,120.623756408691,0.998474071515954,108.193267822266,0.999432912982767,128.350067138672,1,67876,0.000341156209648308,-0.000553979939481091,-0.000350432732456709,-0.000108719432246181,-0.000468145054226477,NaN,0.958742380142212,0.764094328874222,0.372031351287642,0.880397421430146,0.357650279998779,0.0692763661361661,0.429459602805115,0.697312162789634,-0.00307816672036081,-0.000406400182320495,-0.000442543059590044,-0.000527267750220644,-0.00123720594851116,0.857877065500659,3.2357453557067,61
12,0.366686626746507,155.124359130859,1.00302867403489,120.668922424316,0.99884793730208,108.184135437012,0.999348552776439,128.270751953125,1,67829,-0.00129666231045078,-0.000191915732851785,-7.77406646775155e-06,-0.000271575818242432,-9.729610901697e-05,NaN,0.959591448307037,0.764289610638517,0.372790399386693,0.879787799784687,0.357520878314972,0.0685629791042453,0.429609753940055,0.697707658335795,-0.00358767121089146,-0.00011714677611095,-0.000147112071363888,-0.000180225618659033,-0.00084303076596877,0.857877065500659,3.2357453557067,61
13,0.400021774632553,155.172729492188,1.00334143509741,120.647888183594,0.998673824468913,108.182815551758,0.999336360365667,128.326034545898,1,67532,-0.000377184895902272,0.000205994217698481,0.000379528140975679,-0.000452664629617381,0.000318696795219813,NaN,0.960417509078979,0.763573811921262,0.371675650062193,0.875935509812314,0.357954740524292,0.0734658936145375,0.428478351003968,0.696760266876465,-0.00350691409873793,0.000155076258259373,0.000136156645103756,0.000137795013579324,-0.000434002469170549,0.857877065500659,3.2357453557067,61
14,0.433356922518599,155.166625976562,1.00330196997911,120.686828613281,0.998996157403438,108.057571411133,0.998179420393168,128.138763427734,1,68117,-0.0035256499423566,0.000535033025348595,0.000715767352654555,-0.000642890682208675,0.000664589597661377,NaN,0.960093140602112,0.76471854798851,0.374370568286918,0.88352335369729,0.356839418411255,0.0653073401040248,0.428644831686657,0.698246786668917,-0.00209061165044635,0.000285881403361326,0.000283102276757059,0.000283854550774574,-0.000156933851888216,0.857877065500659,3.2357453557067,61
15,0.466692070404645,155.185241699219,1.00342233858993,120.63313293457,0.998551686558378,108.238433837891,0.999850133050823,128.413177490234,1,68081,0.0010501939519037,0.000694235288855411,0.000901952391799767,-0.000819440577317336,0.000837998250268185,NaN,0.961195707321167,0.766249026894435,0.376874605249629,0.880782964189609,0.35756915807724,0.0691109501138481,0.423392723373628,0.697169524865689,-0.00129624692484694,0.000200651700885846,0.000218699982155058,0.000178757684522038,-0.000100899026015459,0.857877065500659,3.2357453557067,61
16,0.500027218290691,155.16374206543,1.00328332271072,120.641830444336,0.998623680983409,108.184387207031,0.999350878496413,128.248092651367,1,68473,-0.000236023831708621,0.000621856032220824,0.000870617816826585,-0.000950769824321228,0.000783178431350533,NaN,0.961082994937897,0.76561077602364,0.376776247572036,0.885854377975574,0.358175247907639,0.0640654108880149,0.42307186774349,0.697756811745818,-0.00403384873204804,-9.48426158682794e-05,-5.23751591378093e-05,-0.000161763067500568,-0.000264447082055756,0.857877065500659,3.2357453557067,61
17,0.533362366176737,155.130249023438,1.00306675787404,120.649841308594,0.998689991638043,108.207557678223,0.99956491521038,128.256011962891,1,67769,-0.000315947169390152,0.000336606596062283,0.000625544454357995,-0.000998051545826837,0.000524620631416544,NaN,0.961323618888855,0.765226972017688,0.376056899172188,0.876746532808942,0.357743620872498,0.0733414406955082,0.423172837137924,0.696276236042055,-0.00290452506311202,-0.000510006808260265,-0.000441131827796349,-0.000626687312079137,-0.000552398412229333,0.857877065500659,3.2357453557067,61
18,0.566697514062784,155.060531616211,1.00261596756026,120.688148498535,0.999007082873202,108.166893005371,0.999189276196405,128.175704956055,1,67923,-0.00253904051920473,-4.20312892402789e-05,0.000264204394576458,-0.000927244349404384,0.000171534131252861,NaN,0.961715459823608,0.765734729031403,0.377559883986279,0.878738873939143,0.357862025499344,0.0707281101221279,0.422478394652769,0.696754992073196,-0.00392338389247845,-0.000894354415419758,-0.000799011060577397,-0.00104290837743496,-0.0008059740027642,0.857877065500659,3.2357453557067,61
19,0.60003266194883,155.120178222656,1.00300164042885,120.63843536377,0.998595577896445,108.162170410156,0.999145651327802,128.234497070312,1,67843,-0.000829179715972683,-0.000318394433340553,-3.80900877528371e-05,-0.000716792417042621,-0.000103919140975073,NaN,0.961425185203552,0.765998948552786,0.377386023613343,0.877703891533844,0.358015447854996,0.0722417718898779,0.422755479563109,0.696548498421687,-0.00376953715359203,-0.00108514184671244,-0.0009652707448071,-0.0012322567168203,-0.00085746340603456,0.857877065500659,3.2357453557067,61
20,0.633367809834876,155.102203369141,1.00288541565546,120.723976135254,0.999303649381926,108.108833312988,0.998652951075138,128.006576538086,1,68153,-0.00411016823144028,-0.000291477247000179,-8.69780605507108e-05,-0.00036958131605609,-0.000125234941078921,NaN,0.96150940656662,0.765879711824865,0.377562249644183,0.881714448354378,0.358406752347946,0.0679336576278203,0.4217862749989,0.697041163785957,-0.00356616566029351,-0.000963003804491779,-0.000822397479519371,-0.00107262562122118,-0.000590220969604143,0.857877065500659,3.2357453557067,61
21,0.666702957720922,155.102844238281,1.00288955949288,120.60375213623,0.998308484338382,108.05876159668,0.998190414705772,128.269989013672,1,67461,-0.00174569202842739,0.00015442127123623,0.000248029953166949,8.49689947105964e-05,0.000221444721127527,NaN,0.960761725902557,0.766067308024884,0.377062302663761,0.872761850548541,0.35919713973999,0.076743945352929,0.367145461822386,0.684553954188625,-0.00428083477241238,-0.00049731356995428,-0.000341303836075384,-0.000543772305031858,1.5186836217066e-05,0.857877065500659,3.2357453557067,61
22,0.700038105606968,155.134536743164,1.00309448211965,120.640830993652,0.998615407939831,108.009384155273,0.997734291685425,128.038635253906,1,67974,-0.00329173190831503,0.000981375064166543,0.000962382629873444,0.000587990049290695,0.000925656249811297,NaN,0.960099220275879,0.766749051107776,0.37860064142172,0.879398675222521,0.35884553194046,0.0694473193955703,0.367361049813164,0.685735254149867,-0.00348473794382343,0.000234574442182417,0.000399507932225758,0.000257542799636655,0.000864357676897658,0.857877065500659,3.2357453557067,61
23,0.733373253493014,155.073394775391,1.00269914029708,120.554588317871,0.997901526377944,108.116134643555,0.998720396954383,128.275390625,1,67691,0.000295043271598933,0.00198803545618092,0.00189291543115783,0.0010626563767045,0.00183665158034894,NaN,0.960240542888641,0.766399275137512,0.376830006943316,0.875737424963776,0.35909429192543,0.0737166218174291,0.367729831144465,0.685091297487767,-0.00422825801121759,0.00106215805231694,0.00122887232155266,0.00113982876253858,0.00176945198896668,0.857877065500659,3.2357453557067,61
24,0.76670840137906,155.122817993164,1.00301870909251,120.543678283691,0.997811217581633,108.088424682617,0.998464426804522,128.177581787109,1,67822,0.000516781205702616,0.00286891123940877,0.00275891780597975,0.00142429994428492,0.00269370638154843,NaN,0.95952296257019,0.766324594772591,0.376500250656129,0.877432208652453,0.359158396720886,0.0722805837300766,0.367520863436643,0.685084938887582,-0.00335577811530451,0.00176754901484138,0.0019286714184742,0.00187010939020772,0.00250078281256356,0.857877065500659,3.2357453557067,61
25,0.800043549265106,155.043914794922,1.00250852377569,120.571807861328,0.998044062708904,108.059272766113,0.998195136622083,128.274490356445,1,67387,-0.00131734122590718,0.00332097743591585,0.00325602933535319,0.00159932575349137,0.00320771016265156,NaN,0.959984600543976,0.766042906396387,0.375844005520353,0.871804491823639,0.359184205532074,0.0792020285655144,0.367014409307433,0.683935288706276,-0.00457136873627991,0.00214874696134744,0.00229713436825206,0.00224279335350811,0.00285484567172857,0.857877065500659,3.2357453557067,61
26,0.833378697151152,155.059158325195,1.00260708790865,120.56103515625,0.997954890666673,108.092575073242,0.998502765945911,128.255249023438,1,67384,-0.000352689159000025,0.0031542799816249,0.00316665999492594,0.00154090611391092,0.00315942522754826,NaN,0.959574401378632,0.765587280857968,0.373708892318651,0.87176567998344,0.359453946352005,0.0790985303249845,0.369390359729313,0.684233363610117,-0.00472384130847859,0.00208064481295959,0.00220979743518134,0.00214157318775945,0.00271621962057806,0.857877065500659,3.2357453557067,61
27,0.866713845037198,155.080276489258,1.00274363721796,120.567886352539,0.998011602064636,108.076454162598,0.998353849391215,128.283630371094,1,67105,-0.000629009637991701,0.00236217831293148,0.00244244399962451,0.00124088121531385,0.00248147974949297,NaN,0.959821939468384,0.765472021458908,0.373489307801207,0.86815617884496,0.359076589345932,0.0831478989857172,0.369346546457045,0.683615534612572,-0.0037006355130441,0.0015542845748996,0.00165867060342354,0.00157445578815799,0.00209316141683788,0.857877065500659,3.2357453557067,61
28,0.900048992923244,155.149398803711,1.00319057968271,120.553932189941,0.997896095219564,107.991195678711,0.997566276036397,128.107147216797,1,67387,-0.00112844550920946,0.00112397753149069,0.00122574234718122,0.000736175123849678,0.00129280985402122,NaN,0.960320591926575,0.766018173633886,0.375294938192826,0.871804491823639,0.359051436185837,0.0793055268060443,0.368409337112499,0.684276765841954,-0.00408091898964457,0.000681695465114375,0.000757003558074331,0.00067249660677727,0.00111719455202771,0.857877065500659,3.2357453557067,61
29,0.933384140809291,155.291870117188,1.00411179420663,120.758689880371,0.999590995552006,107.815483093262,0.995943134923664,127.735641479492,1,67105,-0.00834734095474685,-0.000260132444607052,-0.000197392011232755,0.000102879084955773,-0.00013444016694396,NaN,0.960890233516693,0.767453990015647,0.380210118471053,0.86815617884496,0.35962587594986,0.0847779962740633,0.365352805305119,0.683219438039476,-0.00151491843263214,-0.000335264428205134,-0.000291979161540007,-0.000347114724922239,6.99530838215839e-06,0.857877065500659,3.2357453557067,61
30,0.966719288695337,155.248199462891,1.00382942128519,120.666702270508,0.998829559777796,107.845314025879,0.996218697502397,127.792259216309,1,67644,-0.00574905709688947,-0.00147351655533949,-0.00149261860937001,-0.000552866192458764,-0.0014570963150893,NaN,0.960996270179749,0.76757731653953,0.380994618887115,0.875129372800662,0.359188467264175,0.0753725936659077,0.366418307610431,0.684988577388384,-0.00225621566178135,-0.00126194464488314,-0.00125223088145341,-0.00124317090587834,-0.000993289339157331,0.857877065500659,3.2357453557067,61
31,1.00005443658138,155.226745605469,1.00369070139437,120.711143493652,0.999197426028503,107.850471496582,0.996266339523682,127.785781860352,1,67458,-0.00699850874093941,-0.00228165534159289,-0.00238316919674719,-0.00111789297355064,-0.00237451894766154,NaN,0.960321485996246,0.764767213179559,0.376115508909247,0.872723038708342,0.358872205018997,0.0767827571931277,0.392377479320466,0.689224068848166,-0.00195679407738839,-0.00189552988205791,-0.00191966164067277,-0.00181798656235623,-0.00168157348327688,0.857877065500659,3.2357453557067,61
32,1.03338958446743,155.220352172852,1.00364936168295,120.667739868164,0.998838148586396,107.858695983887,0.996342313042831,127.804878234863,1,67507,-0.0057546911195078,-0.00258647512705099,-0.0027279263010094,-0.00148921754916022,-0.00271915119759743,103,0.960089206695557,0.764577500604876,0.373916779000696,0.873356965431588,0.359777182340622,0.0757995239080936,0.393188854489164,0.689447648867402,-0.00413625076699013,-0.00211702381222274,-0.00217416720994945,-0.00196756849491351,-0.00194817661458629,0.857877065500659,3.2357453557067,61
33,1.06672473235347,155.157653808594,1.00324395625521,120.702117919922,0.999122716024282,107.834907531738,0.996122567743473,127.984390258789,1,66937,-0.0075390967701848,-0.0024257505703291,-0.00254865882508736,-0.00159759719832615,-0.00250542061078072,103,0.960764229297638,0.763738042238722,0.373664789279472,0.865982715793831,0.358915328979492,0.0843381287518112,0.391188729701062,0.687682311112076,-0.00315234754133382,-0.00191545032149351,-0.0020039051584243,-0.00170180209402994,-0.00179646714365587,0.857877065500659,3.2357453557067,61
34,1.10005988023952,155.177719116211,1.00337369783162,120.627227783203,0.998502806132962,107.766235351562,0.995488210001486,127.809875488281,1,67640,-0.00653209687053183,-0.00193442920517568,-0.00200434781159846,-0.00141909263697316,-0.00190808780680392,103,0.961608290672302,0.764217425586438,0.375206978119456,0.875077623680397,0.358109980821609,0.0729403850134548,0.391809580130101,0.689937012209231,-0.00177848920992138,-0.00137897057637916,-0.0014964318787671,-0.00113101912857947,-0.00133010081608913,0.857877065500659,3.2357453557067,61
35,1.13339502812557,155.131866455078,1.00307721613039,120.664726257324,0.998813203149653,107.79231262207,0.995729098209698,127.84895324707,1,67402,-0.0074404698217041,-0.00129358201751687,-0.00132731529680791,-0.000982844706359605,-0.0011905695368883,103,0.96114706993103,0.763666755684797,0.375463636093884,0.871998551024633,0.357890725135803,0.0764851997516042,0.392599626123854,0.689302411884231,-0.00290195804730321,-0.000658854752382295,-0.000802665601645532,-0.000424803857798824,-0.000712583101061686,0.857877065500659,3.2357453557067,61
36,1.16673017601161,155.316299438477,1.00426975334262,120.846519470215,1.00031801293881,108.03995513916,0.998016690471354,127.903358459473,1,68100,-0.00669924520770143,-0.000683471384991157,-0.000744198336022705,-0.000365211740560474,-0.000603462544408383,103,0.963684141635895,0.765403817914831,0.37798825256975,0.882170060624903,0.357399135828018,0.0655344836520027,0.38697503671072,0.690911288949764,-0.000747700760397495,7.93101945056048e-05,-8.80643697265583e-05,0.000241811885366747,-0.000114291307855642,0.857877065500659,3.2357453557067,61
37,1.20006532389766,155.271133422852,1.0039777114672,120.827194213867,1.00015804637863,108.100952148438,0.998580148992317,128.067779541016,1,67258,-0.00551869380203962,-0.000244676767447037,-0.000406028580266492,0.000322315140625934,-0.000298631762845975,103,0.964076399803162,0.765098575634125,0.377367748074579,0.871262759728483,0.357246547937393,0.0787994196590497,0.386719795414672,0.688774867015102,-0.000416092607749899,0.00069999330118439,0.000511808285213266,0.000736379104654396,0.000334744208147466,0.857877065500659,3.2357453557067,61
38,1.23340047178371,155.182037353516,1.00340161940282,120.802062988281,0.999950020382096,108.158500671387,0.999111752197273,127.955863952637,1,67698,-0.0045835389293723,-4.79062288415746e-05,-0.000348288528510355,0.000953804735015618,-0.000287517069467742,103,0.963355541229248,0.764862575950053,0.380572542763449,0.876962536919011,0.356824398040771,0.0718819627959998,0.386761795030872,0.689662645456137,-0.00152104601979143,0.00112402886064136,0.000917695798648181,0.000996922528341088,0.000572184750490254,0.857877065500659,3.2357453557067,61
39,1.26673561966975,155.176300048828,1.00336452219162,120.77766418457,0.999748057073982,108.128326416016,0.998833018182212,127.980392456055,1,67590,-0.0044748985768952,-7.92225390161962e-05,-0.000494179655222642,0.00141159739865475,-0.000461091214245878,103,0.963293373584747,0.764417813285989,0.381328598905163,0.875563500699518,0.356600075960159,0.0733975853671175,0.386595650244119,0.68928242244347,-0.00135842326036626,0.00133135684405026,0.00110950289113053,0.001033598412696,0.000605062089487299,0.857877065500659,3.2357453557067,61
40,1.3000707675558,155.142105102539,1.00314341886634,120.765403747559,0.99964657019589,108.143920898438,0.998977071867872,127.725158691406,1,67922,-0.00414944663073963,-0.00025228118258494,-0.000701403883913902,0.00160819299669658,-0.000658260311222294,103,0.962597966194153,0.763836950227221,0.383130649863078,0.879864241670553,0.356205195188522,0.0680993833877403,0.386575778098407,0.689836135871625,-0.00197007430577564,0.00134408840712947,0.00110950650392145,0.000906658532478591,0.00048841733133479,0.857877065500659,3.2357453557067,61
41,1.33340591544184,155.222900390625,1.00366583836984,120.793586730957,0.999879857394192,108.008575439453,0.997726821190963,128.217498779297,1,66741,-0.00650459416599902,-0.000451997157955873,-0.000835782444744527,0.00150174288437378,-0.000752672362106448,103,0.957465648651123,0.767024767384366,0.385130579403965,0.864565521529613,0.356598347425461,0.0787216954246334,0.371495782202844,0.684475050812281,-0.00270279272573703,0.00120070344822704,0.000956689518601614,0.000692237660905556,0.000292420251165929,0.857877065500659,3.2357453557067,61
42,1.36674106332789,155.640991210938,1.00636919897338,121.249870300293,1.00365678597613,108.527839660645,1.0025235129227,128.248489379883,1,67768,-0.00670298925997154,-0.000595108226837168,-0.000840316134077204,0.00110473896527213,-0.000715526837561913,103,0.963671565055847,0.770742336599378,0.389977570534766,0.877130764551326,0.354787111282349,0.0687539638368646,0.360538897414709,0.686173503852881,0.00482676843455073,0.000934143990143191,0.000684931327129198,0.000450096043948612,7.17653158943001e-05,0.857877065500659,3.2357453557067,61
43,1.40007621121394,155.620071411133,1.00623393228041,121.198471069336,1.0032313241854,108.559593200684,1.00281683554487,128.350708007812,1,67544,-0.00497009975016338,-0.000675931406449043,-0.000765264515338102,0.00048128627286698,-0.000626552977763328,103,0.964067876338959,0.770998657665127,0.390915551344309,0.874231501016037,0.354838848114014,0.0717826587799796,0.359780291365628,0.685687533486094,0.0045897540355499,0.000563107865589805,0.00031427984189557,0.00020471733182023,-0.000151882991580006,0.857877065500659,3.2357453557067,61
44,1.43341135909998,155.617492675781,1.00621725826793,121.214233398438,1.00336179829252,108.536422729492,1.00260279883091,128.316452026367,1,67572,-0.00578368033919879,-0.000766763307465142,-0.000739566894176361,-0.000264233184082963,-0.000625773598625463,103,0.963585436344147,0.768306399100219,0.384671165571539,0.874593908957948,0.355097055435181,0.0709931271922445,0.359808796542947,0.685160497863911,0.00301140211668775,9.87960214445606e-05,-0.000142412474707052,-5.30766226487128e-05,-0.000387637234945259,0.857877065500659,3.2357453557067,61
45,1.46674650698603,155.5556640625,1.00581747661955,121.156494140625,1.00288385635512,108.543640136719,1.00266946947016,128.372833251953,1,67329,-0.00460849882842884,-0.000966115561349734,-0.000892672259792133,-0.00100480006402733,-0.000828184266740282,103,0.964327335357666,0.768475198898939,0.384767336511756,0.87144872574779,0.355706185102463,0.0747595811599643,0.358612187913084,0.684537778216227,0.00335800530873915,-0.000438236505227542,-0.000662871264080099,-0.000346631088367247,-0.000656269802669545,0.857877065500659,3.2357453557067,61
46,1.50008165487207,155.51594543457,1.00556065736221,121.154792785645,1.00286977323513,108.562561035156,1.00284425085002,128.472991943359,1,67700,-0.00455031656089316,-0.00132056378408835,-0.001264481514042,-0.00161432873800387,-0.00124520894101113,103,0.96368932723999,0.769158050221566,0.385805022156573,0.876250630978113,0.355627447366714,0.0692975757497314,0.360162481536189,0.685698826041591,0.00239907427643457,-0.00100131935194241,-0.00119896901055591,-0.000686545664829763,-0.000964683187258187,0.857877065500659,3.2357453557067,61
47,1.53341680275812,155.514617919922,1.00555207369898,121.12313079834,1.00260768826682,108.522529602051,1.00247446137416,128.377349853516,1,67544,-0.00437869446562456,-0.00176586080763926,-0.00175263651637864,-0.00198843943873661,-0.00175040225889674,103,0.964112758636475,0.768792688222986,0.385348809664811,0.874231501016037,0.354901105165482,0.0715367391051112,0.359498993248845,0.685240647696667,0.00475298417490202,-0.00151135110206891,-0.00167074744688842,-0.00104786866176263,-0.00128489457704536,0.857877065500659,3.2357453557067,61
48,1.56675195064417,155.556243896484,1.00582122580579,121.182243347168,1.00309699774501,108.438186645508,1.00169534518289,128.310424804688,1,67593,-0.00701091475500454,-0.00212620300250138,-0.0021316243943264,-0.00206355776619086,-0.00211537873418945,103,0.963493764400482,0.768866598612282,0.384507271463021,0.874865714914381,0.354294925928116,0.0714202508380684,0.359652626751291,0.685150046038744,0.00509979751512651,-0.00186684457911027,-0.0019767520657248,-0.0013621970807593,-0.00154761292563347,0.857877065500659,3.2357453557067,61
49,1.60008709853021,155.640090942383,1.00636337786843,121.16170501709,1.00292698985713,108.40062713623,1.00134839004859,128.212951660156,1,67408,-0.00642990848146643,-0.00217944302804966,-0.00214245969448813,-0.00182609355961869,-0.00209966105156949,103,0.963204026222229,0.76888994382467,0.384168051269879,0.872471233869611,0.355172336101532,0.0750961028203104,0.358577616900071,0.684279142249256,0.00638217928939705,-0.0019690916526076,-0.00201935458372989,-0.00153063591180579,-0.00165577639975278,0.857877065500659,3.2357453557067,61
50,1.63342224641626,155.732421875,1.00696038644551,121.090423583984,1.0023369513369,108.328384399414,1.00068104936879,128.130569458008,1,67826,-0.00501533971546739,-0.00175847022290154,-0.00161335799140633,-0.00131486051026634,-0.00155955596581805,103,0.961922466754913,0.770515731430425,0.387933830684398,0.877881466716714,0.354840904474258,0.069763528817903,0.359847256214431,0.685391049606835,0.00851679535913354,-0.00175438775813704,-0.00173702809536458,-0.0014549670036045,-0.0015151517207284,0.857877065500659,3.2357453557067,61
51,1.6667573943023,155.747146606445,1.00705559604341,120.954063415527,1.00120821768902,108.253913879395,0.999993129591039,128.14045715332,1,67712,-0.00251906559910611,-0.000838017528944101,-0.000552273237570812,-0.000611656221746035,-0.000520768834176069,103,0.965495049953461,0.770267210144928,0.386135396975425,0.876405948667504,0.354851961135864,0.0702812544492046,0.247843809073724,0.663750965620223,0.00882164607458013,-0.00122144836407194,-0.0011316467669436,-0.00107606539540016,-0.00107123302216307,0.857877065500659,3.2357453557067,61
52,1.70009254218835,155.788070678711,1.00732020966161,120.925231933594,1.00096956248534,108.119697570801,0.998753309415832,128.160079956055,1,67602,-0.00365661346022558,0.000436368512185754,0.000836719403636805,0.000173189192114698,0.000815993650547449,103,0.96540766954422,0.769863810735383,0.384722345492737,0.874982203181424,0.354795604944229,0.0710966723185048,0.248927546522292,0.663734721266629,0.00796583261357525,-0.000443007115206025,-0.000279832349435125,-0.000405217565392002,-0.000338715755845018,0.857877065500659,3.2357453557067,61
53,1.7334276900744,155.695083618164,1.00671895858431,120.880149841309,1.00059639138227,108.240539550781,0.999869584526968,128.235122680664,1,67467,-0.00117327540117942,0.00179179592707714,0.00222456875655142,0.000922575295618674,0.00214569002159724,103,0.965914011001587,0.769141456810984,0.383194747061526,0.873234879175781,0.354697436094284,0.0732840631107545,0.248299168482369,0.663241177711347,0.00686464645018794,0.000444318140582856,0.000677498554441352,0.000463474834236144,0.000587405034535555,0.857877065500659,3.2357453557067,61
54,1.76676283796044,155.648086547852,1.0064150771734,120.829498291016,1.00017711858597,108.323532104492,1.00063622640202,128.271911621094,1,67787,0.00118723169015547,0.00292545446783479,0.00328407300933705,0.00153164469612777,0.003169267684286,103,0.965242266654968,0.77046237970899,0.388230781713308,0.877376684226194,0.356249064207077,0.0697505856771204,0.248277693363034,0.663898487569808,0.00539224298538086,0.00127041584333518,0.00156583536643356,0.00136632347977987,0.00154517635671054,0.857877065500659,3.2357453557067,61
55,1.80009798584649,155.698394775391,1.00674036841099,120.752220153809,0.999537441804264,108.307243347168,1.00048575936734,128.2783203125,1,67457,0.00336210155576808,0.00361337618172765,0.00381292918488099,0.00192642592734017,0.00369958648631539,103,0.964781284332275,0.768855221350885,0.384748802941133,0.873105447767955,0.35743260383606,0.0749666714124849,0.248365625509584,0.662644823029165,0.00242902770579191,0.00187392220058684,0.002219645301667,0.00210851283603266,0.00234299593952383,0.857877065500659,3.2357453557067,61
56,1.83343313373253,155.803802490234,1.00742193100403,120.770851135254,0.999691661441041,108.244361877441,0.999904893184755,128.006576538086,1,67457,0.00265387929960828,0.0037814727080103,0.00379586477338787,0.00207326061181035,0.00371287709948677,103,0.964043378829956,0.768919459804023,0.386868671894688,0.873105447767955,0.359367817640305,0.0764551326024773,0.246749781342188,0.661911871720335,0.000382693042465101,0.00214378941356495,0.00252427137730257,0.00251716289834841,0.00281064565320872,0.857877065500659,3.2357453557067,61
57,1.86676828161858,156.015396118164,1.00879008799269,120.980934143066,1.00143064257056,108.269165039062,1.00013401184037,127.626556396484,1,66921,-0.000840453731787788,0.00350724989933138,0.00338035251843222,0.00198078557220178,0.00333006273205819,103,0.964877128601074,0.767078595159467,0.38337741516116,0.866123082896525,0.361240535974503,0.0859121206238271,0.243376518581611,0.659564365598672,-0.000645677317955454,0.00204770157003256,0.00244459107966365,0.0024925159137091,0.00284846991358207,0.857877065500659,3.2357453557067,61
58,1.90010342950463,156.027404785156,1.00886773561295,120.965934753418,1.00130648376389,108.319732666016,1.00060112917332,127.350982666016,1,67462,0.000497427184009386,0.00295762066236062,0.00278511259665956,0.00169405567459068,0.00274350114973407,103,0.963535368442535,0.766401826213276,0.384616524858439,0.873124959554779,0.362568289041519,0.0766064841778295,0.243173934955975,0.660541956876031,-0.00277664993973253,0.00163898149794925,0.00203218938744006,0.00203980291463997,0.00245813674259557,0.857877065500659,3.2357453557067,61
59,1.93343857739067,155.922714233398,1.00819081017131,120.940185546875,1.00109334237399,108.30590057373,1.00047335552748,127.203742980957,1,67325,0.000143000493625561,0.002303444328882,0.00219381340851807,0.00127976935435923,0.00212721624617354,103,0.96354466676712,0.765292734249288,0.384597103601931,0.87135184106646,0.364364594221115,0.0783148903125607,0.245168956554029,0.660448122402434,-0.0102096553531981,0.00104005856658056,0.00140896626014332,0.00127057460598657,0.00174430365737816,0.857877065500659,3.2357453557067,61
60,1.96677372527672,155.881805419922,1.0079262952159,120.89673614502,1.00073368601386,108.288970947266,1.00031696847832,126.858551025391,1,67844,0.000702002353633518,0.00165960344600895,0.00168929193044853,0.000811603561740959,0.0015786432623996,103,0.962798178195953,0.762907061297486,0.384912446200106,0.878068983368925,0.365839004516602,0.0712353588300007,0.24460527091563,0.660804353578812,-0.0140852078085591,0.000407525794510987,0.000732335205033114,0.000372566172620664,0.000886283195287587,0.857877065500659,3.2357453557067,61
61,2.00010887316277,156.727722167969,1.01339596328668,121.510803222656,1.00581668188007,108.848419189453,1.00548485921318,127.491271972656,1,66957,0.000323258865942394,0.00107523775851692,0.00125550062290681,0.000352945475195994,0.0011095090530393,103,0.960417091846466,0.769130436947095,0.390205654375196,0.872540332038886,0.368442475795746,0.0784748103938075,0.270696118404349,0.665513614368896,-0.0102684642502819,-0.000111150326834193,0.000151950745405462,-0.000444902358657229,8.59089611664359e-05,0.857877065500659,3.2357453557067,61
62,2.03344402104881,156.741088867188,1.01348239189575,121.591667175293,1.00648604057384,108.892921447754,1.00589594783767,127.243209838867,1,67018,-0.000966368810994545,0.000562480863511663,0.000833354043352698,-5.39206967778614e-05,0.000683755992599018,103,0.962126314640045,0.768201577685597,0.391372467098391,0.873335244598504,0.369487136602402,0.0743047772941698,0.272523799576233,0.66678788974531,-0.0152432515183674,-0.000417053687711833,-0.000229775798685995,-0.00101301969516867,-0.000492340356747952,0.857877065500659,3.2357453557067,61
63,2.06677916893486,156.956588745117,1.01487580656013,122.037086486816,1.0101730392775,109.439231872559,1.0109424782757,127.187797546387,1,67281,-0.00200483788812861,0.000130515034537342,0.00038760917068219,-0.000392900397303569,0.000268983753811242,103,0.964926719665527,0.768770777287298,0.391774795261664,0.877494326629627,0.369550675153732,0.0704150037822469,0.264621512759917,0.666643737320665,-0.0117024952575205,-0.000484536413231849,-0.000382585162859904,-0.00125268346082346,-0.000769399632461468,0.857877065500659,3.2357453557067,61
64,2.1001143168209,156.904815673828,1.01454104369415,122.049156188965,1.01027294733048,109.504333496094,1.01154385307987,126.946380615234,1,67712,-0.00163857954965074,-0.000203431908445744,-5.91520757915028e-05,-0.000671320239144945,-0.00013049305278593,103,0.963316261768341,0.76937618147448,0.397270793950851,0.883115528079923,0.369398355484009,0.0668283903278817,0.265108104914934,0.667033380267507,-0.0145767605163859,-0.000364558387523923,-0.000351994092234769,-0.00119495996980691,-0.000772509290497345,0.857877065500659,3.2357453557067,61
65,2.13344946470695,157.375564575195,1.01758488960582,122.594604492188,1.01478794507499,110.098876953125,1.01703593508383,127.19123840332,1,67654,-0.0025380349155299,-0.000431620594315774,-0.000444152125312661,-0.000911305486895896,-0.000478643695966195,103,0.956857800483704,0.769774637616894,0.396103704141662,0.880659186170628,0.370503038167953,0.0702012444351878,0.256777130694416,0.663292604673558,-0.0115002424839654,-0.000165872956309341,-0.000240865779770221,-0.000964979898416195,-0.00062082344773887,0.857877065500659,3.2357453557067,61
66,2.166784612593,157.378753662109,1.01760551013013,122.614822387695,1.01495530053669,109.999130249023,1.01611452711596,126.957656860352,1,68113,-0.00469547961063144,-0.000583730230113844,-0.000717630352039475,-0.00113712144091521,-0.000743457277354682,103,0.954215586185455,0.769544727144598,0.400716456476737,0.886634037124782,0.369014292955399,0.0645778553018666,0.256338731226051,0.663398131372195,-0.0145867259601244,-1.93233909560286e-05,-0.000174149661164529,-0.000733789008491052,-0.000479397912141071,0.857877065500659,3.2357453557067,61
67,2.20011976047904,157.8583984375,1.02070687645173,123.038803100586,1.01846483929794,110.581520080566,1.0214943402739,127.049713134766,1,68402,-0.00251226358116813,-0.000737115757065449,-0.000892456572193746,-0.00136202746942435,-0.000935139357394068,103,0.939582467079163,0.772891630849001,0.403789362884126,0.886438152011923,0.368908315896988,0.0613231387286982,0.251381538551504,0.6599385484533,-0.0107335725987324,-3.52463192101315e-05,-0.000256731021987767,-0.000655209435789246,-0.000497751358859732,0.857877065500659,3.2357453557067,61
68,2.23345490836509,157.887786865234,1.02089690099635,123.220062255859,1.01996522837679,110.759788513184,1.02314109096819,126.738395690918,1,68685,-0.00411468876295595,-0.000990913653065647,-0.00105285817301211,-0.00158093511809002,-0.00111947967506427,103,0.936016321182251,0.771075683676688,0.406566208051248,0.890105617831919,0.370043039321899,0.0620099786172488,0.250229307709107,0.658343481993962,-0.0163976702584466,-0.000266211959667817,-0.000536633101235447,-0.000808481031625139,-0.000752997210279877,0.857877065500659,3.2357453557067,61
69,2.26679005625113,158.502700805664,1.02487291300226,123.652770996094,1.02354701417509,111.259384155273,1.02775609463651,126.971405029297,1,68245,-0.0024838856708877,-0.00141006050061377,-0.00131044454953799,-0.0017651387301959,-0.00138571289456461,103,0.917801558971405,0.775539111534422,0.410623488900286,0.881558891156638,0.369637310504913,0.0694706383858217,0.244691918821892,0.652381293672383,-0.0108488523265095,-0.00068626209924138,-0.000984616468557158,-0.00116612862902737,-0.00121684692812077,0.857877065500659,3.2357453557067,61
70,2.30012520413718,158.508682250977,1.0249115888182,123.807525634766,1.02482800971661,111.399436950684,1.0290498292293,126.600685119629,1,69149,-0.00420110661016493,-0.00196976028341548,-0.00172931072118615,-0.00186935953923304,-0.0017885056898404,103,0.915027558803558,0.774014567576296,0.414872232425632,0.893236365515282,0.370044767856598,0.0593949414834526,0.244269620674196,0.652910536713636,-0.0148000840448039,-0.00119364743119284,-0.0014972513605573,-0.0015998353021095,-0.00175992433645353,0.857877065500659,3.2357453557067,61
71,2.33346035202323,159.651901245117,1.03230360280136,124.635711669922,1.03168339465167,112.025901794434,1.0348367843354,127.630729675293,1,68496,-0.00682173604573194,-0.00253729419831187,-0.00226345292997863,-0.00184058152728836,-0.00228896401439325,103,0.957872450351715,0.7791695865452,0.419367554309741,0.886174864801925,0.368021041154861,0.0630191217947059,0.347728334501285,0.684764637310073,-0.00487342353906007,-0.00163740831408666,-0.00192360070292245,-0.00192203730402807,-0.00219183895504265,0.857877065500659,3.2357453557067,61
72,2.36679549990927,159.436477661133,1.03091068145097,124.597434997559,1.03136655602853,111.966873168945,1.03429150871605,127.80525970459,1,68487,-0.00845630672062381,-0.00290927094987296,-0.00274622740766664,-0.00163382011102443,-0.00273899438656632,103,0.961399614810944,0.779529935121507,0.423306612933841,0.886058426268533,0.365275204181671,0.060056408000621,0.346255493743338,0.685897964195606,-0.00892060264438138,-0.00186110310914383,-0.0021089996542543,-0.0019500207384863,-0.0023246559584215,0.857877065500659,3.2357453557067,61
73,2.40013064779532,159.780654907227,1.0331361194719,124.937530517578,1.03418172750626,112.551544189453,1.03969239430648,128.124786376953,1,68405,-0.00506902092411637,-0.00289038271748933,-0.00294531722767542,-0.00122550181378422,-0.00292132882686879,103,0.958368718624115,0.781122237653193,0.42531978656531,0.881076277080811,0.364034384489059,0.0670676730467039,0.334200716321906,0.681925942763576,-0.00363802935764729,-0.00175115961835116,-0.00194326395266952,-0.00157173474222992,-0.00203949087942644,0.857877065500659,3.2357453557067,61
74,2.43346579568136,159.625762939453,1.03213459343224,125.016845703125,1.03483826614014,112.554222106934,1.03971713150984,127.879112243652,1,68813,-0.00832106836535573,-0.00237674183847116,-0.0026626093757081,-0.000626405087641913,-0.00264182398667694,103,0.955720126628876,0.779910772673768,0.430049554589976,0.886331435637188,0.361618608236313,0.0628815786084134,0.332989406071527,0.681449014828932,-0.00787124821745192,-0.00127515687701673,-0.00139872024295254,-0.000788729160887595,-0.00133116267200245,0.857877065500659,3.2357453557067,61
75,2.46680094356741,160.040878295898,1.03481871479061,125.228889465332,1.0365934775918,112.911651611328,1.04301887863287,128.255950927734,1,68407,-0.00476351195233266,-0.00140657751478732,-0.00183448563449592,0.000117813025466263,-0.0018263055862589,103,0.944615066051483,0.785314368412589,0.434253804435219,0.880568964407543,0.360431551933289,0.0660487867670722,0.322657038022425,0.677180241917142,-0.00222335766642387,-0.000497561015412465,-0.00054548911080614,0.000277783240226837,-0.000316192234578854,0.857877065500659,3.2357453557067,61
76,2.50013609145346,160.013427734375,1.03464122042106,125.285774230957,1.0370643463927,112.934562683105,1.0432305191505,128.075317382812,1,68723,-0.00609436948305112,-0.000159076474347182,-0.000585431295707129,0.000926385213826087,-0.000586516299758226,103,0.941524922847748,0.786238474261407,0.440871324010884,0.884636673746541,0.359063684940338,0.0638347171268585,0.3212752644675,0.676670423717421,-0.0033401887714178,0.000432950635698397,0.000461628369564873,0.00141873274845503,0.000797701387185248,0.857877065500659,3.2357453557067,61
77,2.5334712393395,160.338241577148,1.03674145535418,125.406661987305,1.03806500574763,113.18798828125,1.04557153249519,128.424667358398,1,67812,-0.00255266902615278,0.00109521949677059,0.000793138895148514,0.00169994529373321,0.000795808968727714,103,0.931011617183685,0.789378477752217,0.443284374447001,0.875795890428651,0.359371900558472,0.0704903847395679,0.314590337993276,0.672268205886689,-0.00116685753135797,0.00132172846339326,0.00142194883453844,0.0023974383550856,0.00177197968101438,0.857877065500659,3.2357453557067,61
78,2.56680638722555,160.210678100586,1.03591663438172,125.48486328125,1.03871232404287,113.296890258789,1.04657751209847,128.226409912109,1,68046,-0.00379974388309004,0.00207261098918431,0.00193529166077807,0.00233361031834631,0.00195382231242268,103,0.928570926189423,0.788603787633856,0.447050524645093,0.878818013922432,0.357419818639755,0.0676103268801095,0.312435705258208,0.671532977824951,-0.00158439912182323,0.0019806173662945,0.00214177409864189,0.00301736520240707,0.00240650252544774,0.857877065500659,3.2357453557067,61
79,2.6001415351116,160.026458740234,1.03472547844863,125.50365447998,1.03886786989274,113.197319030762,1.04565772508695,128.202438354492,1,67970,-0.00737485240658228,0.0025575320878808,0.00253005096649896,0.0027379559230709,0.00256964983225204,103,0.927907884120941,0.787597469471826,0.447050169192291,0.877836469539837,0.356421738862991,0.0699608673752728,0.312476092393703,0.670797944623297,-0.00341330170900857,0.00227864352146437,0.00248554060061223,0.0031757927229671,0.0025954856174568,0.857877065500659,3.2357453557067,61
80,2.63347668299764,160.393478393555,1.0370986146748,125.55428314209,1.03928695323002,113.473236083984,1.04820650274932,128.415512084961,1,68114,-0.00127177145006854,0.00246482298432252,0.00243680231304058,0.0028557846051026,0.00249589974416664,103,0.917362332344055,0.791090426833446,0.45018645212438,0.876560368568708,0.356431812047958,0.069029418577716,0.308570925213612,0.668228146522991,0.00156662729912431,0.00217517637887206,0.00240923923017019,0.00288456346334399,0.00235009760711753,0.857877065500659,3.2357453557067,61
81,2.66681183088369,160.746520996094,1.03938137578006,125.740211486816,1.04082599194757,113.521614074707,1.04865339336614,128.684631347656,1,68234,-0.0026348175499131,0.00186652780470239,0.00173893769510399,0.00267021824155726,0.00181150980813939,103,0.961148858070374,0.789225312893865,0.450801653134801,0.878104650863511,0.358044028282166,0.0760816410573186,0.3618137585368,0.688321966234555,0.000854832746589471,0.00172577254629141,0.00196642925161821,0.00225387755245016,0.0017826846097205,0.857877065500659,3.2357453557067,61
82,2.70014697876973,160.608062744141,1.03848610957143,125.77409362793,1.04110645444017,113.245933532715,1.04610680047102,128.34001159668,1,68462,-0.00917587700642844,0.000971569657751389,0.0007111327520182,0.00220990548375896,0.000789736028064838,103,0.964583694934845,0.79199166447567,0.456764336420204,0.881038787223638,0.355452120304108,0.0692353228836898,0.361981829335982,0.690862970834651,0.000848540536745858,0.00106003216518124,0.00128618300562212,0.00145099834547329,0.00106450782075537,0.857877065500659,3.2357453557067,61
83,2.73348212665578,160.393310546875,1.03709752938404,125.718772888184,1.04064853200517,113.507797241211,1.04852576067302,128.730407714844,1,68366,-0.0050287496948683,5.70395905641422e-05,-0.000289305005636873,0.00154321738299142,-0.000212152987602923,103,0.967288196086884,0.791338774634565,0.451116051838633,0.874502730982258,0.354669123888016,0.0769663711833404,0.352265746131118,0.688228333785523,0.00245020928354678,0.000340034738324261,0.000531550239725582,0.000645160163123566,0.000368113514157519,0.857877065500659,3.2357453557067,61
84,2.76681727454183,160.393600463867,1.03709940397716,125.652061462402,1.04009632213458,113.177719116211,1.0454766713108,128.267547607422,1,68594,-0.00873024987348783,-0.000630014396904274,-0.000963065159309123,0.000762440852459688,-0.000895491229480635,103,0.967374503612518,0.793368710577213,0.457707671224888,0.877419189787278,0.35354295372963,0.074228993182138,0.350497128028691,0.688740154715168,0.00234505029376548,-0.000286162529783761,-0.00014706458217975,-4.03030497062022e-05,-0.000183463544705363,0.857877065500659,3.2357453557067,61
85,2.80015242242787,160.218826293945,1.03596932031465,125.607597351074,1.03972826642486,113.051147460938,1.04430746845117,127.934692382812,1,68289,-0.0110056291662645,-0.000961935095758091,-0.0011811703455266,-2.88806379919632e-05,-0.00112714711711805,103,0.966322362422943,0.793178013052371,0.461055221192286,0.873517786561265,0.352432936429977,0.0817120124844903,0.35168182284116,0.687478635786923,0.00338042051892673,-0.00072080128014902,-0.000648209121435307,-0.000549575277941481,-0.000539963666288609,0.857877065500659,3.2357453557067,61
86,2.83348757031392,160.332748413086,1.03670593674771,125.727111816406,1.040717558239,113.327629089355,1.04686146136438,128.105773925781,1,69218,-0.00868603221516775,-0.000969666123660127,-0.0010194822682673,-0.000736621604299316,-0.000974653253908226,103,0.961239516735077,0.794393558515608,0.46040047386518,0.881555821595048,0.351683616638184,0.0703023510532617,0.34177526077032,0.686295266872433,0.00439905034603989,-0.000932352827121466,-0.000935525553717244,-0.000890522299859465,-0.00072006498922483,0.857877065500659,3.2357453557067,61
87,2.86682271819996,160.082702636719,1.03508914951376,125.597915649414,1.03964812526226,113.209533691406,1.04577055774387,128.069671630859,1,69137,-0.00916369531324931,-0.000810123743514826,-0.000700770898309958,-0.00129033364099529,-0.000650006546295854,103,0.960432827472687,0.793588575340749,0.462646629156602,0.880524211008941,0.351479172706604,0.0721872691612114,0.340714812618424,0.685418921394212,-0.000681052197057712,-0.000948956323358899,-0.00103142908495786,-0.00111030323850347,-0.000784982178772301,0.857877065500659,3.2357453557067,61
88,2.90015786608601,159.865936279297,1.03368754583734,125.450073242188,1.03842434634274,113.048072814941,1.04427906647694,127.878288269043,1,69262,-0.00960850806153671,-0.000674875824458947,-0.000473307434619649,-0.00165159888427039,-0.000396205190204601,103,0.958150207996368,0.792507676166825,0.466388495856314,0.882116202654168,0.35189288854599,0.0719580223642986,0.339276948398833,0.684381193333936,-0.0058594992453506,-0.000835436953238552,-0.000994465161571517,-0.001261494211431,-0.00080102857504379,0.857877065500659,3.2357453557067,61
89,2.93349301397206,160.181976318359,1.03573104966291,125.718032836914,1.04064240616374,113.511871337891,1.04856339505078,128.61962890625,1,69040,-0.00653672559664997,-0.00068609418788898,-0.000485765985508716,-0.00181676802705483,-0.000369249571288427,103,0.944375693798065,0.796707222865971,0.466323870220162,0.87387980355425,0.350152760744095,0.0777175839198015,0.329461181923523,0.678892790980247,-0.00121150645547878,-0.00066492874887271,-0.000891422698762597,-0.00137688036448565,-0.000810993580027467,0.857877065500659,3.2357453557067,61
90,2.9668281618581,159.953048706055,1.03425081173828,125.85920715332,1.04181098935741,113.669876098633,1.05002296052534,128.322570800781,1,70724,-0.00942453799797932,-0.000836091795009141,-0.000719749355005968,-0.0018134416407183,-0.000570682518067539,103,0.939201354980469,0.791442791697302,0.46616424410384,0.895195179990886,0.349517464637756,0.0582881879398511,0.329336575985521,0.679630102211306,-0.00769790939657006,-0.000496172935767783,-0.00077521150215513,-0.0014608108873362,-0.000823396961885922,0.857877065500659,3.2357453557067,61
91,3.00016330974415,161.243408203125,1.04259423106085,126.813026428223,1.04970631481614,114.368637084961,1.05647774964579,129.490036010742,1,69628,-0.013025797554809,-0.0010041360514293,-0.00101138861951523,-0.00168927275514147,-0.000858140769321386,103,0.962113380432129,0.800434691024683,0.47432067559028,0.879618985055017,0.345892876386642,0.0610179769319201,0.291089791463204,0.679070365296503,0.00483925043033588,-0.000363191264920284,-0.000675044861207756,-0.00149654353911977,-0.000819683339014221,0.857877065500659,3.2357453557067,61
92,3.03349845763019,161.302810668945,1.04297832532471,126.890892028809,1.05035085437919,114.571739196777,1.05835390090114,129.186477661133,1,69798,-0.0112458034406569,-0.00103867286213384,-0.0011471794100635,-0.00150028967251236,-0.0010272535996421,103,0.966095447540283,0.801498610275366,0.479025186968108,0.881198868801131,0.344456911087036,0.0597288152711847,0.279793117281297,0.678225596953014,0.00411172579092443,-0.000277654023973824,-0.000599311952729145,-0.00146541328552418,-0.000775414792274822,0.857877065500659,3.2357453557067,61
93,3.06683360551624,161.218704223633,1.04243449599454,126.826309204102,1.04981626419683,114.627571105957,1.05886964692446,129.193008422852,1,69152,-0.00925605967687115,-0.000853140673116435,-0.000981367431824598,-0.00129824306138864,-0.000920070516016772,103,0.962494850158691,0.802199020515194,0.481128528459047,0.87303210493757,0.345128774642944,0.0717847719324824,0.269753586302638,0.673528670394042,0.00396465887345174,-0.000238597136566924,-0.000545663973848642,-0.00136528619017896,-0.000681943229373754,0.857877065500659,3.2357453557067,61
94,3.10016875340229,161.067855834961,1.04145911559575,126.727256774902,1.04899634874053,114.460563659668,1.05732691934174,128.791015625,1,69634,-0.0105714002056267,-0.000477351892766335,-0.000513374028815304,-0.00111982684469429,-0.000507844145857114,103,0.960211157798767,0.803213947209696,0.490909613120028,0.879117272027169,0.344743400812149,0.0657501041548309,0.269006519803544,0.673976866187567,1.91131250003723e-05,-0.000241848210296722,-0.000510499768326457,-0.00121589398867574,-0.000554612327836294,0.857877065500659,3.2357453557067,61
95,3.13350390128833,161.234268188477,1.0425351320462,126.836204528809,1.04989817364355,114.612892150879,1.05873405040234,128.997772216797,1,69539,-0.00962402224864445,-3.74675706418216e-05,0.00011236524712667,-0.000980140092792098,9.20509379782381e-05,103,0.949682712554932,0.806755921137779,0.493262773407728,0.876468364003025,0.344882607460022,0.0664608016133098,0.263449287450208,0.670827991598201,0.00159952605811892,-0.000283434519570664,-0.000492240695927854,-0.00104981628595752,-0.000425242878568112,0.857877065500659,3.2357453557067,61
96,3.16683904917438,161.161346435547,1.04206362254531,126.609466552734,1.0480213295054,114.477249145508,1.05748105114728,128.872314453125,1,69541,-0.00643273798631566,0.000317951660512888,0.00068009000948386,-0.000871632202969768,0.000672480946528049,103,0.948684513568878,0.80667999213893,0.496297148444802,0.876493571968742,0.344382256269455,0.0680489034534913,0.262607670295222,0.670140836326491,0.00131084197334256,-0.000355818272200211,-0.000487260504208974,-0.000894764539465464,-0.000324103183174082,0.857877065500659,3.2357453557067,61
97,3.20017419706042,161.074783325195,1.04150390850502,126.543388366699,1.04747436133417,114.169319152832,1.05463655466641,128.616561889648,1,69342,-0.0104592990181289,0.000499427093860079,0.00100952276423721,-0.000768539833813457,0.00103640105473772,103,0.947201371192932,0.807432724755559,0.496784055839174,0.873985379379884,0.344382554292679,0.072535921351147,0.262337400132676,0.669148620359697,0.00054217461806965,-0.000440711943814697,-0.000482299973592798,-0.000754267211633388,-0.000258508477043442,0.857877065500659,3.2357453557067,61
98,3.23350934494647,160.928283691406,1.04055664700303,126.286842346191,1.04535077840777,113.897552490234,1.05212611614543,128.434112548828,1,69692,-0.00931060065779737,0.000520203220293915,0.00104214403470409,-0.000632244807744111,0.00109581543745996,103,0.948697030544281,0.807290171994873,0.498866440911439,0.878396773380388,0.344414710998535,0.0660448701789766,0.263444871721288,0.670754087150666,0.00192186740088024,-0.000504801683290738,-0.000449752802161248,-0.000598765094252704,-0.000201189120070398,0.857877065500659,3.2357453557067,61
99,3.26684449283252,160.787994384766,1.03964954125891,126.16854095459,1.04437152792134,113.708518981934,1.05037992330317,128.425659179688,1,69511,-0.0103998022565094,0.000483181116147851,0.000867134826964609,-0.000424667380936307,0.000915175567918984,103,0.948594570159912,0.807387799532928,0.498050668239559,0.876115452482985,0.344089478254318,0.068300983110663,0.264145243198918,0.670527093788641,0.00256105135896763,-0.000503638814037376,-0.000351251417724896,-0.000375252008897245,-9.79478571800253e-05,0.857877065500659,3.2357453557067,61
100,3.30017964071856,160.694152832031,1.03904276506505,125.990249633789,1.04289570536121,113.568778991699,1.04908907824126,128.296310424805,1,69660,-0.00872163949898558,0.00052527021010959,0.000678103063601593,-0.00011554202018136,0.000686542187812996,103,0.947516083717346,0.807728012249976,0.496497272466265,0.877993445928913,0.344468533992767,0.0671288127048147,0.263077806488659,0.670299574644293,0.00470582082502167,-0.000394574814508645,-0.000150338918749841,-3.1271612289514e-05,0.000108930361317216,0.857877065500659,3.2357453557067,61
101,3.33351478860461,160.976348876953,1.04086743480964,126.003776550293,1.04300767563803,113.526565551758,1.04869913252562,128.531875610352,1,69225,-0.00757606994916826,0.000751656012570742,0.000682930458093893,0.000306532499010823,0.000637839305880126,103,0.963521003723145,0.806803900325027,0.496785843264717,0.87251071338543,0.345444530248642,0.0734182001512478,0.377276995305164,0.695949518032625,0.00614513812166954,-0.000154385733541044,0.000170090718876364,0.000455789056514172,0.000450277224223753,0.857877065500659,3.2357453557067,61
102,3.36684993649066,160.932678222656,1.04058506188821,125.829261779785,1.04156311381508,113.208847045898,1.04576421487122,128.314178466797,1,69739,-0.00856108088272117,0.00118910994393357,0.00100703673568498,0.000829122742666908,0.00092237777476401,103,0.962782680988312,0.807439166033353,0.499046444600582,0.878989160574742,0.345337480306625,0.0663977816990169,0.376489482212249,0.696857754824356,0.00685375147021749,0.000206317726300225,0.0005935868650102,0.00105762470063488,0.000906794690425843,0.857877065500659,3.2357453557067,61
103,3.4001850843767,160.57356262207,1.03826303299024,125.632469177246,1.03993414521925,113.14387512207,1.04516403816521,128.573348999023,1,69724,-0.00721665948697595,0.00177208925841023,0.00163033958565113,0.00141453533830841,0.0015365615736893,103,0.963114857673645,0.807469450978142,0.498379324192531,0.878800100831863,0.344713151454926,0.0650869674817242,0.377875623888475,0.697433814594659,0.00353997530989935,0.0006395119028506,0.00106686451068674,0.00169306581935638,0.00140494940502875,0.857877065500659,3.2357453557067,61
104,3.43352023226275,160.680786132812,1.03895633645597,125.727569580078,1.04072134741926,113.233818054199,1.04599488400681,128.28076171875,1,70205,-0.00739865105726087,0.00236124840408258,0.00238326112960364,0.00200158541832698,0.00230435256292854,103,0.964767217636108,0.809287087814258,0.501032689979346,0.8831928544471,0.343875348567963,0.0628884136369355,0.36681148066377,0.696349371922723,0.00555617609501006,0.00107036142385715,0.0015108050479252,0.00224794563623202,0.00183561647565724,0.857877065500659,3.2357453557067,61
105,3.46685538014879,160.294876098633,1.03646105568866,125.501693725586,1.0388516395706,113.193183898926,1.04561952689829,128.523452758789,1,70129,-0.00508903049617662,0.0027858397145942,0.00300411047688824,0.00251441148181392,0.00294151073240341,103,0.964309751987457,0.806699083118254,0.501903634730283,0.882236759340798,0.343434065580368,0.0651905900113222,0.367380113790301,0.695462782976764,0.00155547813504424,0.0014189800504257,0.00184275874050598,0.00261083653519796,0.002090032821114,0.857877065500659,3.2357453557067,61
106,3.50019052803484,160.649871826172,1.03875644563178,125.890510559082,1.04207010613451,113.565399169922,1.04905785721252,128.211212158203,1,71448,-0.00643295522759477,0.00289692684685801,0.00323679242576398,0.0028712175336334,0.00316878220020832,103,0.955300331115723,0.809297204493711,0.503862949277796,0.891706708268331,0.343502849340439,0.0537784711388456,0.349121039077371,0.691904176110932,0.00204205367595548,0.00162472076274042,0.00200128392935875,0.00271026535170501,0.00209835596368666,0.857877065500659,3.2357453557067,61
107,3.53352567592089,160.712554931641,1.03916175239672,126.104972839355,1.04384533708857,113.919242858887,1.052326480445,128.576171875,1,71210,-0.00574141299931133,0.00261572976276414,0.00293154594538322,0.00299896290346779,0.00283174607952484,103,0.945347845554352,0.811313954032673,0.509254318213734,0.889913645509192,0.342598050832748,0.0549244554418326,0.339601179609605,0.687732075246351,0.00149068140489097,0.00166266977319878,0.00196305166382012,0.00253764622758271,0.00185425716457266,0.857877065500659,3.2357453557067,61
108,3.56686082380693,160.940979003906,1.04063873444909,126.440238952637,1.04662053271451,114.236511230469,1.055257239994,128.642272949219,1,71388,-0.00756469297920756,0.00196202255866843,0.00210821932455692,0.00284399786670341,0.0019665149082565,103,0.930625379085541,0.812676266786201,0.514526250910517,0.89170351495166,0.343595832586288,0.0523745284668615,0.329453129377486,0.682702299449425,-0.00112027790480409,0.00154496582118964,0.00174423369977213,0.00214549073311901,0.00141413140002928,0.857877065500659,3.2357453557067,61
109,3.60019597169298,161.281723022461,1.04284197334098,126.73583984375,1.0490673958705,114.734725952148,1.05985948744065,128.62532043457,1,70784,-0.00446116474780303,0.00105182946050886,0.000953746526154625,0.00238566246572239,0.000788726289733781,103,0.911816596984863,0.815160676612417,0.523027802893309,0.887540280616403,0.342919081449509,0.0590949556756486,0.319733273056058,0.675477746271807,0.00101766474515771,0.0013065582044068,0.00138607013715314,0.00162099655383485,0.000870343154393437,0.857877065500659,3.2357453557067,61
110,3.63353111957902,161.508407592773,1.04430770783464,127.065063476562,1.05179257431694,114.997116088867,1.06228331051169,129.034057617188,1,71592,-0.00704876710880595,6.07903419079046e-05,-0.000249763551940872,0.00164060527517679,-0.000400543406364241,103,0.893664002418518,0.815277312176407,0.525128505978322,0.895571678759069,0.340863287448883,0.0506004503377533,0.313023801542072,0.670980151294285,-0.00128246936538759,0.000982502501984794,0.000931609029094035,0.00104685499922562,0.000310388437662139,0.857877065500659,3.2357453557067,61
111,3.66686626746507,162.849639892578,1.05298006891825,128.096710205078,1.06033212357369,115.93000793457,1.07090087825519,129.953033447266,1,71168,-0.00842868745655903,-0.000839694825198852,-0.00124038654301381,0.000667498588806349,-0.00134187901254122,103,0.963316977024078,0.818804331534772,0.527048673561151,0.887049732020441,0.337587416172028,0.0561635298516764,0.306865445143885,0.686977034815483,0.0107742301066252,0.000588626302394884,0.000405665242215252,0.000467465280982478,-0.000219064129336316,0.857877065500659,3.2357453557067,61
112,3.70020141535112,162.715835571289,1.05211489486232,128.156478881836,1.06082686421027,115.967224121094,1.07124466195316,130.067413330078,1,71616,-0.0104260841326139,-0.00155145950413246,-0.00188647284062876,-0.000440016772666886,-0.00192945625871205,103,0.966603457927704,0.822856158772714,0.536653820375335,0.893480050902014,0.33460733294487,0.0511390573146693,0.295897564789991,0.68721936002412,0.0100405115661599,0.00011646762169917,-0.000191101420990236,-0.000124276113946216,-0.000727107520082699,0.857877065500659,3.2357453557067,61
113,3.73353656323716,162.925537109375,1.05347081766431,128.259033203125,1.06167576689559,116.165077209473,1.07307232547087,130.036437988281,1,71562,-0.00821711982979426,-0.00208965064825089,-0.00223879632857434,-0.00156188374476561,-0.00224524569886297,103,0.955797612667084,0.826532703576386,0.545848355272351,0.891593885102725,0.333374947309494,0.0570624073358833,0.286967943880831,0.682519547484473,0.0108422024012234,-0.000452915452344104,-0.000869130002159274,-0.000771775213751369,-0.00126375195686053,0.857877065500659,3.2357453557067,61
114,3.76687171112321,163.105087280273,1.05463178278189,128.320343017578,1.06218326443905,116.179100036621,1.07320186102578,130.012756347656,1,71377,-0.00820180953793234,-0.00256489452970314,-0.00249350936697002,-0.00256907201171099,-0.00250329790799678,103,0.943703651428223,0.828833751301773,0.552180674446951,0.890176221892421,0.332297921180725,0.0549617749398252,0.28007621502725,0.678914022132488,0.0127695931382461,-0.00112117434677236,-0.00162284126044226,-0.00151542603623905,-0.00187926020172192,0.857877065500659,3.2357453557067,61
115,3.80020685900925,162.675109863281,1.05185156386046,128.174041748047,1.06097224242643,116.040016174316,1.07191707693108,129.727569580078,1,71296,-0.00997518488091945,-0.0031060114196196,-0.00287581891047671,-0.00334105085951868,-0.00292149053080468,103,0.938122749328613,0.826741098144823,0.555150359066427,0.889166032700198,0.333239555358887,0.0618959130987865,0.279791292639138,0.67593381939314,0.00800081509499589,-0.00184393544953004,-0.00240227685974785,-0.00234602848137292,-0.00257494430739257,0.857877065500659,3.2357453557067,61
116,3.8335420068953,163.169616699219,1.05504902774512,128.254028320312,1.06163433852469,116.139213562012,1.07283341060082,129.853393554688,1,70382,-0.00658985769170817,-0.00375783041644191,-0.00349665858703193,-0.00378369399945111,-0.00358269663102616,103,0.92284494638443,0.83443683517566,0.565400244380665,0.875692085650654,0.332117170095444,0.0708446866485014,0.271177289647921,0.670498911697064,0.0154487226078029,-0.00251707238987299,-0.00309962513095507,-0.00317492604331028,-0.0032706134212207,0.857877065500659,3.2357453557067,61
117,3.86687715478135,162.960464477539,1.05369665680378,128.175979614258,1.06098828328955,115.974006652832,1.07130731543973,129.920211791992,1,70366,-0.008884965520706,-0.00441011365584014,-0.00425529480795056,-0.00384591013224321,-0.00435661125525445,103,0.921315670013428,0.834801845588305,0.566054628655885,0.87549301382305,0.331879407167435,0.0739800679332612,0.271039990904698,0.669660473932636,0.0179916120397439,-0.00298945403538647,-0.00356210444607002,-0.0038376279158175,-0.00380652250800266,0.857877065500659,3.2357453557067,61
118,3.90021230266739,162.559997558594,1.05110725172933,127.79020690918,1.0577950147744,115.533973693848,1.06724252073615,129.905410766602,1,70334,-0.00908446765713555,-0.00480520085947393,-0.00484560594468809,-0.00352533838236662,-0.00492262632946335,103,0.921799063682556,0.834390195353599,0.565928285039952,0.875094870167842,0.33113420009613,0.0720764435817999,0.270722552392868,0.669940084496844,0.0157896931667981,-0.00310311878427647,-0.00363216526555782,-0.00413427161065061,-0.00398376982187146,0.857877065500659,3.2357453557067,61
119,3.93354745055344,162.362915039062,1.04983292305942,127.551727294922,1.05582097816245,115.262405395508,1.06473391460061,129.927474975586,1,70358,-0.00880429565787261,-0.0046350362971547,-0.00487638975416763,-0.0028710769312149,-0.00490018021308535,103,0.923348605632782,0.834304556695756,0.56432815031695,0.875393477909248,0.330146163702011,0.06998618939196,0.270701270644419,0.670640526573517,0.0197454710585712,-0.0027493504217506,-0.00320356071389792,-0.00389801860952532,-0.00363443965309412,0.857877065500659,3.2357453557067,61
120,3.96688259843948,161.994415283203,1.04745021654207,127.241600036621,1.05325387168605,115.026725769043,1.0625568292759,130.391403198242,1,70753,-0.00736598859932924,-0.00369018905821911,-0.0040580135841242,-0.00197381857962694,-0.0040264636261537,103,0.927052557468414,0.834117752368569,0.559933854394867,0.880308063653217,0.329287379980087,0.0615131947295734,0.272285274122652,0.673201633508616,0.0220630165076388,-0.00191999497066897,-0.00227256552297964,-0.00306599872296583,-0.00269516158479715,0.857877065500659,3.2357453557067,61
121,4.00021774632553,161.91471862793,1.04693490075986,126.992416381836,1.05119123140891,114.791839599609,1.06038707349292,130.864135742188,1,71351,-0.00528028496425353,-0.00199044975300705,-0.00236860404902344,-0.000951004940337944,-0.00230636925917157,103,0.964116215705872,0.826365432860086,0.546957996384073,0.887748373209909,0.329603582620621,0.0569469846839113,0.306821207831705,0.6885548645154,0.0306164123902057,-0.000732093052461591,-0.000962425244290723,-0.00172361188399373,-0.00125360960110658,0.857877065500659,3.2357453557067,61
122,4.03355289421158,161.505966186523,1.04429192178732,126.492530822754,1.04705338340675,114.42887878418,1.05703423100683,130.400634765625,1,72715,-0.00124475207328834,0.000171677105915505,-0.000114888806741293,7.34759813320799e-05,-5.63361272917068e-05,103,0.958080768585205,0.816406518600014,0.530674551330537,0.903123641557474,0.335546165704727,0.0492206421163758,0.298700405693461,0.684666274266376,0.0302208419878557,0.000588260513406631,0.000493130972731598,-0.000102097149776671,0.000453122704902785,0.857877065500659,3.2357453557067,61
123,4.06688804209762,160.937606811523,1.04061692997123,125.783813476562,1.04118691136779,113.625595092773,1.04961391571538,129.658096313477,1,73008,-0.000230950323573509,0.00230610144531228,0.00215226102689655,0.000988383404575891,0.0021840354535046,103,0.944409787654877,0.815581854043392,0.525997150997151,0.909586993085405,0.338138163089752,0.047305799539027,0.277969537584922,0.677243797313138,0.030740364447306,0.0017623113254325,0.00180678951704233,0.00147613667814771,0.00209435580773215,0.857877065500659,3.2357453557067,61
124,4.10022318998367,160.088882446289,1.03512910794604,124.842544555664,1.03339547260132,112.735504150391,1.04139172036745,129.195663452148,1,73169,0.00331599834844509,0.00389568633813455,0.00383977753198132,0.00171283444559662,0.00384597701562252,103,0.922703564167023,0.814106156067916,0.518211264333256,0.909892433003793,0.338830262422562,0.0434993471367282,0.253563667673468,0.667249960248156,0.0262305002408469,0.00253897944569762,0.00271862726657176,0.00268905333175381,0.00334008480629949,0.857877065500659,3.2357453557067,61
125,4.13355833786972,159.281463623047,1.02990836610894,123.748794555664,1.02434185788864,111.617904663086,1.03106791987942,128.582611083984,1,72923,0.00744481996542373,0.00459223429228843,0.00454609188458205,0.00220466638013121,0.00454840456195629,103,0.897746682167053,0.814205851834583,0.514364466629184,0.902937024838414,0.340006619691849,0.0506302468982937,0.228432730414273,0.654863547487808,0.0273889492746951,0.00277215492220833,0.00307409012734878,0.0033120173771334,0.00396101419994678,0.857877065500659,3.2357453557067,61
126,4.16689348575576,158.527984619141,1.02503639725482,123.025512695312,1.01835482676425,110.634323120117,1.02198210718117,127.967063903809,1,73086,0.00441149075700698,0.00435117967922866,0.0042217782430976,0.00246100284080508,0.00424559488095002,103,0.874164700508118,0.811673918397504,0.505650877048956,0.907957015963724,0.341094076633453,0.043369153363563,0.212831458829324,0.646503186034225,0.0241245999411822,0.00246713560181333,0.00287107625372122,0.00328766179481489,0.00390057643856885,0.857877065500659,3.2357453557067,61
127,4.20022863364181,158.117324829102,1.02238108543281,122.26594543457,1.01206743995088,109.498138427734,1.01148662627324,127.088394165039,1,72306,0.00247378165545814,0.00344215612118805,0.00318304401486366,0.00251184832701182,0.00323994779795487,103,0.855074286460876,0.810970043979753,0.500871296987802,0.899910389804351,0.340707272291183,0.0499079006322497,0.197369512903493,0.637451218890708,0.0241475637746965,0.00177823843077028,0.00225811583900224,0.00274208419845439,0.00329147722985827,0.857877065500659,3.2357453557067,61
128,4.23356378152785,157.690399169922,1.01962059907053,121.641822814941,1.00690120842486,108.783966064453,1.00488947489985,126.001426696777,1,72714,0.00382785346263625,0.00232924714084547,0.00197083940995661,0.00240545808560075,0.00205084828237428,103,0.837060928344727,0.809069321817898,0.495722969441923,0.902707601395389,0.341431438922882,0.0440466288438381,0.181024286932365,0.63023649322122,0.0241376594746633,0.000956714603085524,0.00148260145830034,0.00193763600685061,0.00240663939545318,0.857877065500659,3.2357453557067,61
129,4.2668989294139,156.541717529297,1.01219326380649,120.736595153809,0.999408104451226,107.97021484375,0.997372466038568,126.458290100098,1,73778,0.00535355811894073,0.00147558613429925,0.00111903649321326,0.00219368600457751,0.00119917368358406,103,0.79956728219986,0.954729052020928,0.907221664994985,0.918390718749222,0.346575230360031,0.0510244728259516,0.162948304372577,0.645263376176514,0.0195375244764854,0.000266281671071524,0.000806471067833833,0.00117952545174409,0.00156259344561889,0.857877065500659,3.2357453557067,61
130,4.30023407729995,156.904281616211,1.0145375904963,120.328453063965,0.996029671327135,106.928497314453,0.987749623455417,124.321319580078,1,71605,0.0016985761413679,0.00115920156738913,0.000935096081931342,0.00191758355623518,0.000995955679391555,103,0.805018961429596,0.811707748527803,0.490943369876405,0.897272032379735,0.33787128329277,0.042805408317983,0.15512883178549,0.61777319108918,0.0239965969506372,-0.000104375269625597,0.000418663132240567,0.000710408731704229,0.00101086382016,0.857877065500659,3.2357453557067,61
131,4.33356922518599,154.185531616211,0.996958248200791,118.770462036133,0.983133259448914,105.840019226074,0.977694831244375,127.740585327148,1,71554,0.00372550135827668,0.00137722495292821,0.00138769695797825,0.00160077014413267,0.00142832141351107,103,0.96413242816925,0.797677278698605,0.4753053637812,0.898355304456999,0.343818753957748,0.0442686754551161,0.390278670654331,0.701541308840081,-0.00246258413553008,-0.000101367742870956,0.000375219026135245,0.000628443588532622,0.000853921865431643,0.857877065500659,3.2357453557067,61
132,4.36690437307204,153.771560668945,0.9942815265521,118.232406616211,0.978679456965675,105.361442565918,0.973273989955698,127.225440979004,1,72099,0.00681205934810256,0.00187350286915568,0.00214432084415809,0.00124671900755064,0.00218206931112599,103,0.952026128768921,0.795563507584479,0.469132720287383,0.908849111307198,0.346163600683212,0.0417118366317913,0.366523807542407,0.693750101356521,0.00258196625035482,0.000183088123423789,0.000587663204830382,0.000857636963282007,0.00101523897284529,0.857877065500659,3.2357453557067,61
133,4.40023952095808,153.135650634766,0.99016975453923,117.559547424316,0.973109804047459,104.778228759766,0.967886565350573,126.817665100098,1,71668,0.0100032186784384,0.00226948759268691,0.00273350212346451,0.000847193765954016,0.00279170113251816,103,0.934621393680573,0.794054994325687,0.461614667634091,0.903700901582498,0.347519993782043,0.0475127671647437,0.342914550426969,0.683447214624315,0.00325279769470679,0.000551092342734487,0.000863132383230214,0.00118312910597406,0.00127614497881285,0.857877065500659,3.2357453557067,61
134,4.43357466884413,152.161880493164,0.983873390902869,116.82299041748,0.967012886695396,103.931060791016,0.960060870020024,126.702331542969,1,72356,0.00787088725092031,0.00223293811746836,0.00275354444187282,0.000391858945007689,0.00284334968296081,103,0.912402093410492,0.793193837875689,0.456271767372436,0.914162981680354,0.350664973258972,0.037207833228048,0.324700093979767,0.675726056407226,-0.00310882048642311,0.000775826242114836,0.000980805857105996,0.00133820228808865,0.00136538468045411,0.857877065500659,3.2357453557067,61
135,4.46690981673018,151.633560180664,0.98045729026283,116.268135070801,0.96242002129644,103.076858520508,0.95217019548293,126.084373474121,1,71690,0.00427865085161241,0.00160751499852207,0.00203579323706884,-0.00011868782979012,0.0021476646379068,103,0.893367290496826,0.791319105407542,0.449100292927884,0.906779661016949,0.350675642490387,0.0413736402732102,0.310210629097503,0.667027987081502,-0.00150105286809265,0.000686661197668426,0.000776679018762194,0.00111024887727819,0.00106745862308915,0.857877065500659,3.2357453557067,61
136,4.50024496461622,151.440994262695,0.979212165780468,115.783622741699,0.958409426598173,102.406547546387,0.945978212719542,125.167335510254,1,71263,0.00448895254269441,0.000456509520488224,0.000699549868147004,-0.000664143236447164,0.000809255586952856,103,0.876689493656158,0.791855521097905,0.44237542623802,0.902577417516307,0.349936753511429,0.0397694889494016,0.300268021273312,0.661233963656379,-0.00455099949251736,0.000232325521014573,0.000206303433496332,0.000426336837443141,0.000309430353425371,0.857877065500659,3.2357453557067,61
137,4.53358011250227,151.202255249023,0.977668487678167,115.096710205078,0.952723445845828,101.697708129883,0.939430324323775,124.318061828613,1,70305,0.00905791602364606,-0.000977388031821568,-0.00091105106262276,-0.00120085922725015,-0.000824904397060506,103,0.859197735786438,0.794206196809141,0.439982931512695,0.893249647426531,0.347890168428421,0.0475942419352789,0.286409216983145,0.653307437995422,0.00065235604857217,-0.000499398587960709,-0.000635920277762728,-0.000612863726535425,-0.00080551416752291,0.857877065500659,3.2357453557067,61
138,4.56691526038831,150.425796508789,0.972647932653646,114.638809204102,0.948933128826954,101.017166137695,0.933143832757808,123.48218536377,1,70384,0.00385042546432166,-0.00236239400055988,-0.00236868411081279,-0.00166843330485722,-0.00231164465559099,103,0.840559005737305,0.795218610290218,0.436548079108888,0.894639838318101,0.346913367509842,0.0413356551803033,0.274707319845419,0.647511232632605,-0.000810924322164702,-0.00131099579097278,-0.00154646899402874,-0.00176066518933879,-0.00202707124424022,0.857877065500659,3.2357453557067,61
139,4.60025040827436,150.705123901367,0.974454053792641,114.340110778809,0.946460625551172,100.502647399902,0.928390977323759,122.100219726562,1,69587,0.00539991664994058,-0.00338103325740901,-0.00331897369289525,-0.00199782538884304,-0.0032773775457301,103,0.824000895023346,0.794204856271047,0.43388851365916,0.880658592454788,0.343240320682526,0.0481035726489236,0.264014830356245,0.639947589457467,0.00752047557013889,-0.00196179672296117,-0.0022795808889002,-0.00270504645210001,-0.00304023168067176,0.857877065500659,3.2357453557067,61
140,4.63358555616041,151.207168579102,0.977700257098399,114.484367370605,0.947654722558617,100.259208679199,0.926142217538031,120.283561706543,1,68544,0.00145655074669668,-0.00381957516603438,-0.00359165349034457,-0.00213247361189553,-0.00354764352613319,103,0.81284099817276,0.794764433551198,0.434567577030812,0.869704236610711,0.3347327709198,0.048240772461396,0.253428454715219,0.63513030360265,0.0201417354706652,-0.00224787530891119,-0.00262748703550002,-0.00317483099449968,-0.00357260431287916,0.857877065500659,3.2357453557067,61
141,4.66692070404645,145.518356323242,0.940916596261389,110.678199768066,0.916148825410935,97.1897201538086,0.897787885331911,126.467132568359,1,72002,0.00700325508549118,-0.00362352835055357,-0.00323272902079397,-0.00203842283136538,-0.00317736960922041,103,0.944504797458649,0.922381785691138,0.823643787672565,0.917643760195759,0.356209456920624,0.050838601141925,0.34874031276909,0.712216442874,-0.0202379414164398,-0.00206792669274744,-0.00248639364362421,-0.00303196965720488,-0.00348652738757106,0.857877065500659,3.2357453557067,61
142,4.7002558519325,144.811859130859,0.93634841015538,110.076759338379,0.911170347767031,96.4090042114258,0.890576039121761,126.3203125,1,72974,0.00447711627688283,-0.00290519628002866,-0.00245722722372022,-0.00172209553729656,-0.00240070374700402,103,0.928972542285919,0.899137592384502,0.765587743579905,0.928765065991269,0.359063804149628,0.0443802420740477,0.323348041768301,0.699639423670193,-0.0204978710852455,-0.00145426693364697,-0.00188753444671932,-0.00231797872981791,-0.00282422446409205,0.857877065500659,3.2357453557067,61
143,4.73359099981854,144.120849609375,0.931880366787058,109.375778198242,0.905367912874548,95.7209396362305,0.884220057862027,126.033752441406,1,72827,0.00624383747706192,-0.00190119984138916,-0.00155117475143478,-0.00122866230151225,-0.00151384327907187,103,0.91224730014801,0.863388578411853,0.654976862976643,0.925951354718948,0.363034695386887,0.0466618351959924,0.30054787372815,0.683383221833644,-0.0244721469144895,-0.000560883519676559,-0.000985102000733812,-0.00123914182786693,-0.00179123272354658,0.857877065500659,3.2357453557067,61
144,4.76692614770459,143.556915283203,0.928233987181739,108.741729736328,0.900119519289782,95.1203994750977,0.878672581436875,125.439407348633,1,72382,0.00868025991550231,-0.000893923778193337,-0.000766246743368252,-0.000640171577010887,-0.000764625610237528,103,0.896130919456482,0.845214740312969,0.596667679809897,0.922780759571132,0.364537954330444,0.0468644424329734,0.279945290265536,0.671566425190546,-0.0263671027103104,0.000384910911710537,-7.77794962471188e-06,-9.88714483825317e-05,-0.000687602298700979,0.857877065500659,3.2357453557067,61
145,4.80026129559064,143.162170410156,0.925681580655693,108.25562286377,0.896095725613593,94.6653060913086,0.874468666393042,124.999641418457,1,71713,0.0109311089407816,-0.000123720151831897,-0.000247209981204989,-5.81042560678727e-05,-0.000279568031136341,103,0.879991054534912,0.812535151692627,0.489715951082788,0.914333435332517,0.363550394773483,0.0551305589555284,0.260873202906028,0.655858545120574,-0.0296988918188779,0.00114972648519769,0.000808739214706561,0.000799150358465738,0.000188869826771257,0.857877065500659,3.2357453557067,61
146,4.83359644347668,142.70768737793,0.922742909284287,107.722671508789,0.891684172490306,93.8313522338867,0.866765036122945,124.008399963379,1,71976,0.00766969606008522,0.000277468118620471,-1.39425917470307e-05,0.000415487507883605,-6.0586183307139e-05,103,0.862770020961761,0.783654736764107,0.404495943092142,0.916238097662814,0.364867359399796,0.0473929426141861,0.249485939757697,0.644737769726531,-0.0384056151533315,0.00155842480581404,0.00128622369312782,0.00124513765289508,0.000635478002046799,0.857877065500659,3.2357453557067,61
147,4.86693159136273,142.370849609375,0.920564928068111,107.26033782959,0.887857163575869,93.3586807250977,0.862398743539112,123.32999420166,1,71277,0.00945018408649601,0.000308945772070423,5.26025398142316e-06,0.000701877854052259,-2.98297045229183e-05,103,0.849372744560242,0.774892321506236,0.375591004110723,0.909319385086432,0.363306939601898,0.0495120239841806,0.235882542755728,0.636576235154984,-0.0389805195921441,0.00153695325231846,0.00134691952950477,0.00118138249529779,0.000600513887928235,0.857877065500659,3.2357453557067,61
148,4.90026673924878,142.154708862305,0.919167369566316,106.861450195312,0.884555335046132,92.8915481567383,0.858083616794706,122.780502319336,1,70236,0.0105824485193871,7.70879249927266e-05,-8.63440325828117e-05,0.000761638458826965,-9.66334130796835e-05,103,0.840729594230652,0.769681265068246,0.364926818155931,0.896130242290468,0.362031847238541,0.0514436633195963,0.223959223190387,0.630679510078254,-0.0414928250638799,0.00112366213918019,0.00102498204457204,0.000707294314400851,0.000186025190819764,0.857877065500659,3.2357453557067,61
149,4.93360188713482,142.403503417969,0.920776066451016,106.851226806641,0.884470710020218,92.8084106445312,0.85731563586876,121.882804870605,1,69606,0.0114175998632257,-0.000260410688369336,-0.000207749278647254,0.000606841899657316,-0.000201159795880915,103,0.82936018705368,0.762415117470716,0.341867080424101,0.886012143429946,0.360133111476898,0.0575349091788546,0.213587909088297,0.623335066606606,-0.036981749841756,0.000449629284113195,0.00044692640802694,3.50520701314817e-05,-0.000397743322654509,0.857877065500659,3.2357453557067,61
150,4.96693703502087,143.381774902344,0.927101535612123,108.246994018555,0.896024299565601,94.0723571777344,0.868991313948924,119.707977294922,1,69195,0.00306928836624215,-0.000556001045976472,-0.000322540828133634,0.000296888539502786,-0.000325219819403547,103,0.836657404899597,0.757872678661753,0.328679817905918,0.880780539962577,0.357848078012466,0.054479958249004,0.217891466146398,0.625600386866689,-0.0239075756977932,-0.00030267013114235,-0.000209537813529513,-0.000584922042888414,-0.000906361386511668,0.857877065500659,3.2357453557067,61
151,5.00027218290691,139.098236083984,0.899404323612482,104.838165283203,0.86780741088776,90.9959869384766,0.840573412063515,124.538345336914,1,71743,0.00891986346347196,-0.000713222769612403,-0.000423839662140153,-6.92390029932704e-05,-0.000460901802523793,103,0.94198477268219,0.900594250774756,0.768548847971231,0.91440115219414,0.375321239233017,0.0601715545699028,0.313814588182819,0.698750512230878,-0.0658490525988873,-0.000948346862795768,-0.000764254325620168,-0.000944311075534482,-0.00113968857871431,0.857877065500659,3.2357453557067,61
152,5.03360733079296,139.838958740234,0.904193810369357,105.408676147461,0.872529866251773,91.7320785522461,0.847373042027372,124.639305114746,1,71394,0.0118069004561968,-0.000691670684158294,-0.000497345511241682,-0.000378891632842081,-0.000577087780063585,103,0.945512294769287,0.847377464025922,0.622335210241757,0.909952969066646,0.375550001859665,0.0614206145885112,0.312547272880074,0.688535722739359,-0.0621194143242434,-0.00134297556740261,-0.00107734051575172,-0.000936565849925926,-0.000999192443659825,0.857877065500659,3.2357453557067,61
153,5.06694247867901,140.305419921875,0.907209932035427,106.115455627441,0.87838029742761,92.4412536621094,0.853924031383104,124.817008972168,1,71369,0.0085061404974448,-0.000482993652172819,-0.00049120678219247,-0.000526987908552917,-0.000597675924360761,103,0.945570170879364,0.84738004829361,0.622441115890653,0.909634331306797,0.375241309404373,0.0617392523483603,0.311003376816265,0.688190947366078,-0.0619455313249891,-0.00140952666937878,-0.00107578315881045,-0.000574334651664583,-0.000503219492450906,0.857877065500659,3.2357453557067,61
154,5.10027762656505,140.866912841797,0.910840525593425,106.897094726562,0.88485038588275,93.3528289794922,0.862344688168808,125.184051513672,1,71506,0.00732232093820667,-8.57069857912659e-05,-0.000318530351999442,-0.000441723585539221,-0.000421430315619355,103,0.946531891822815,0.756836256164984,0.351956479176573,0.91138046623077,0.374050736427307,0.0574185243248066,0.311792017453081,0.671171663787348,-0.0612936836593965,-0.00114572078282308,-0.000760519199011893,3.31096938620242e-05,0.000236372477095955,0.857877065500659,3.2357453557067,61
155,5.1336127744511,141.635238647461,0.915808493347812,107.679656982422,0.891328115851424,94.2277755737305,0.870426987936483,125.453010559082,1,71764,0.00711569118860855,0.000495570330679414,0.000101522672836937,-0.000103099995956082,2.8217749348656e-05,103,0.947420239448547,0.755100050164428,0.346064879326682,0.914668807912413,0.373382925987244,0.0535693801858295,0.311618638871858,0.671627696839661,-0.0611415872626685,-0.000613905275715105,-0.000196158383955078,0.000727333933657385,0.00106071165836211,0.857877065500659,3.2357453557067,61
156,5.16694792233714,142.412826538086,0.920836349419219,108.528617858887,0.898355466417507,95.2867431640625,0.880209177576032,125.894638061523,1,71600,0.00827752105935869,0.00122658258219863,0.000784503874150248,0.000450649391831945,0.000747734841318437,103,0.949397504329681,0.751177839851024,0.333826815642458,0.912578544207803,0.372333317995071,0.0536331077377994,0.312555865921788,0.671514819998935,-0.0621123504835286,8.05030899404931e-05,0.00051066812723457,0.00135617442669095,0.00181739136473006,0.857877065500659,3.2357453557067,61
157,5.20028307022319,143.492584228516,0.927818024834858,109.474906921387,0.906188459860889,96.4018936157227,0.890510355151587,126.115547180176,1,71244,0.0101469022467343,0.00201979039054611,0.00163952769558379,0.00112718639001659,0.00162451223739716,103,0.949537336826324,0.751684352366515,0.334245690865196,0.908041142507552,0.372969269752502,0.0597764437476899,0.313163213744315,0.670789616429117,-0.0618260471063022,0.000814468250023021,0.00123677372878674,0.00181584602870482,0.0024003668106407,0.857877065500659,3.2357453557067,61
158,5.23361821810924,144.629455566406,0.935168995094988,110.709014892578,0.91640390039576,97.7574310302734,0.903032101967731,126.701904296875,1,70945,0.00883171806771391,0.00273571516333104,0.00247611997751581,0.00179594364389066,0.00245690606969802,103,0.948714673519135,0.744074047971433,0.329396010994432,0.905788774832746,0.370610237121582,0.0585388897400541,0.306434561984636,0.667914168012589,-0.0601393051507217,0.00147006040269764,0.00186506495717264,0.00206661841427292,0.00276420375071905,0.857877065500659,3.2357453557067,61
159,5.26695336599528,145.552017211914,0.941134246388813,111.736373901367,0.924907957664037,98.9822235107422,0.914346095353762,127.35595703125,1,70304,0.00915156189765473,0.00321579199833807,0.00306359717500134,0.00231403749664944,0.00302029850812053,103,0.944793343544006,0.745600060688818,0.338615157032317,0.903336888226451,0.36924484372139,0.0590797538129441,0.301391101502048,0.666143807714104,-0.0589022253987269,0.00195041611047448,0.00230039597808196,0.00212104805484756,0.00291244434914604,0.857877065500659,3.2357453557067,61
160,5.30028851388133,146.848052978516,0.949514368271409,112.998207092285,0.935352896216946,100.275634765625,0.926293953147241,127.581939697266,1,70557,0.00731006317795815,0.00333299020201176,0.00321798904592828,0.00255325474985694,0.00314753526831028,103,0.931844651699066,0.748326412215183,0.354068341907961,0.909685155101725,0.368373930454254,0.0493540651349888,0.294967189648086,0.663723232875822,-0.055505872094226,0.00218798624332448,0.00247773893379385,0.00201445314072988,0.00286982253067703,0.857877065500659,3.2357453557067,61
161,5.33362366176737,147.537399291992,0.953971657394995,113.559951782227,0.940002788778888,100.97200012207,0.932726612689753,128.759872436523,1,69564,0.00937006998793541,0.00303654010664888,0.00287474318824143,0.00242867906696312,0.00279199811808885,103,0.959298729896545,0.759281620761697,0.375654073946294,0.895646911895351,0.367575585842133,0.052131481028467,0.282861825081939,0.669912334678309,-0.0529898663733782,0.00214673232257371,0.0023643387154993,0.00177377435066749,0.00265382793053816,0.857877065500659,3.2357453557067,61
162,5.36695880965342,148.76806640625,0.961929107860599,114.943717956543,0.951457038648329,102.453727722168,0.946414038547389,129.322738647461,1,70383,0.00691762041903457,0.00236890648721291,0.00211083174957509,0.00191566442383364,0.00203701902721398,103,0.965144753456116,0.764057608608139,0.389639543639799,0.906541815324772,0.362518072128296,0.0404693517433249,0.267607234701561,0.671144060747037,-0.0465583826287873,0.0018212757942033,0.00195876549710789,0.00139991054605786,0.00225962822278891,0.857877065500659,3.2357453557067,61
163,5.40029395753947,149.872650146484,0.969071307644922,116.249496459961,0.962265738506658,103.89404296875,0.95971891870749,129.945693969727,1,70056,0.00486105101038989,0.00144498124165763,0.00110513461281729,0.00106024062195947,0.00105587427681994,103,0.947580337524414,0.768337710783754,0.396211602146854,0.903517030578949,0.35922959446907,0.0417993989966081,0.258321913897453,0.665539105477888,-0.0417197490202758,0.00123590681212103,0.00128987808151789,0.000871886999123946,0.00166577847860929,0.857877065500659,3.2357453557067,61
164,5.43362910542551,151.223190307617,0.977803853033936,117.619171142578,0.973603344776948,105.024955749512,0.970165700448687,130.189086914062,1,70343,-0.00210751089584413,0.000403320730534803,5.83259007988405e-05,-2.89796121818859e-05,3.40270230776145e-05,103,0.921729862689972,0.772021854816163,0.402783503689066,0.905630013003232,0.357122123241425,0.0384045936168295,0.250941813684375,0.658880464393908,-0.0345917275718427,0.000444687339035021,0.000416722131265261,0.000170513690950426,0.000857917647592516,0.857877065500659,3.2357453557067,61
165,5.46696425331156,152.113876342773,0.98356299774744,118.584510803223,0.98159403127235,106.436584472656,0.983205589484483,130.430236816406,1,69970,0.0027065069136408,-0.000641891498021519,-0.0008847111717808,-0.00119428832842704,-0.000894646531381966,103,0.894317090511322,0.775789624124625,0.417264541946548,0.897189311176078,0.357276767492294,0.0464045750628302,0.244904959268258,0.650293457296354,-0.0294699241862955,-0.0004682540693936,-0.000571451777563254,-0.000690960703877706,-0.000142060940389765,0.857877065500659,3.2357453557067,61
166,5.5002994011976,153.101379394531,0.989948157899976,119.691619873047,0.990758226895758,107.493965148926,0.992973120040559,131.017532348633,1,70476,-0.0013574786073641,-0.00161800529236356,-0.00166908789501151,-0.0022608613095988,-0.00168030909812846,103,0.864500522613525,0.777654804472445,0.420838299562972,0.903480546118839,0.355947405099869,0.0406384206140632,0.240379703728929,0.643229884995406,-0.0280826210983165,-0.00139114988006424,-0.00155810775873497,-0.00164299353699994,-0.0012544409766946,0.857877065500659,3.2357453557067,61
167,5.53363454908365,153.828384399414,0.994648946803472,120.642608642578,0.998630122589859,108.722175598145,1.00431868683715,131.849075317383,1,70042,-0.000481203981713058,-0.00247291935837992,-0.00230604047212424,-0.00306147252684467,-0.00232759450849333,103,0.838784456253052,0.779575112075612,0.426986665143771,0.898481194519986,0.353408247232437,0.0468982502950382,0.236286799348962,0.635364776300972,-0.0243100648842977,-0.00219312267984341,-0.00240838833473334,-0.00255452766222522,-0.00233855847305474,0.857877065500659,3.2357453557067,61
168,5.5669696969697,154.738143920898,1.00053142001166,121.628135681152,1.00678791193494,109.592674255371,1.01235989888528,132.063873291016,1,70410,-0.00503336796662499,-0.00313920405087183,-0.00281111765824412,-0.00347141318045016,-0.0028439613949529,103,0.81387585401535,0.783326232069308,0.437650901860531,0.90309754376964,0.351471036672592,0.0420701596870391,0.229924726601335,0.62938792968804,-0.0198513345270605,-0.00274107062211335,-0.00298650060731359,-0.00325470870243769,-0.00321589973186663,0.857877065500659,3.2357453557067,61
169,5.60030484485574,155.537460327148,1.00569977190422,122.462257385254,1.01369242990744,110.429374694824,1.020088900646,132.494812011719,1,70516,-0.00699828430765606,-0.00351785686879352,-0.00314675865561734,-0.00342628132304474,-0.00318371964883342,103,0.788356900215149,0.786757615292983,0.446919847977764,0.90117445590359,0.350179702043533,0.0453168730590806,0.224417153553803,0.622073479133692,-0.0172056435257876,-0.00292400809233252,-0.00318037757796811,-0.00357590060701791,-0.00371326169052841,0.857877065500659,3.2357453557067,61
170,5.63363999274179,156.139755249023,1.00959418977805,123.218063354492,1.01994868228963,111.340194702148,1.02850258027179,132.683059692383,1,71034,-0.00719335284653477,-0.00349943976302678,-0.00320829521715459,-0.00293550156079814,-0.00323983246234266,103,0.765258073806763,0.78820940207037,0.453191429456317,0.906230863441519,0.349031507968903,0.0410798122065728,0.219303432159248,0.616244315344563,-0.014176745547496,-0.00268027104822327,-0.00292904001033202,-0.00340469168294114,-0.00371291147925953,0.857877065500659,3.2357453557067,61
171,5.66697514062784,156.905288696289,1.01454410224082,123.771827697754,1.02453251680896,111.913925170898,1.03380240275789,133.326049804688,1,70956,-0.00636442790019359,-0.00301233157548274,-0.00286672989710355,-0.00207864575186331,-0.00288500522488393,103,0.962083458900452,0.792387770825112,0.460863070071594,0.905836695092682,0.346569299697876,0.0438773425930654,0.3869581148881,0.699369667052865,-0.0105793029864272,-0.00201991411025682,-0.00224485918330519,-0.00272366675774505,-0.00319319800990259,0.857877065500659,3.2357453557067,61
172,5.70031028851388,157.204467773438,1.01647858367708,124.289131164551,1.02881454312019,112.487579345703,1.03910152048037,133.274993896484,1,70888,-0.00820066901937522,-0.00207118006302726,-0.00204884345866543,-0.000991452925982886,-0.00205220696270486,103,0.962321698665619,0.793951961780085,0.467060715494865,0.902709861450693,0.344134420156479,0.0459071923390383,0.368228755219501,0.695671417292076,-0.00948033936640815,-0.0010339877934225,-0.00122251589890507,-0.00162734065430893,-0.0022435197667104,0.857877065500659,3.2357453557067,61
173,5.73364543639993,157.748107910156,1.01999374176405,124.75106048584,1.0326382049254,113.187355041504,1.04556568295708,133.184524536133,1,70651,-0.00457586904017621,-0.000801004831622782,-0.000812609427448273,0.000160629517688578,-0.000806190717789897,103,0.950620830059052,0.797587200936057,0.477233160181738,0.895200324370898,0.344576567411423,0.0512151237931122,0.350568286365373,0.689091885168151,-0.00633962028188653,0.000115254543008878,-2.87093201696407e-05,-0.000306859638120807,-0.00104889039336336,0.857877065500659,3.2357453557067,61
174,5.76698058428597,158.286514282227,1.02347505851208,125.289497375488,1.03709516505886,113.637489318848,1.04972378836506,132.82145690918,1,70941,-0.00715978035555487,0.000574414458692694,0.000625636789211127,0.00120911220136849,0.00063028372135305,103,0.931081354618073,0.800435103348792,0.484402531681256,0.898385360602799,0.344444513320923,0.0460583802950674,0.335461862674617,0.682580391011989,-0.00537285198317218,0.00122392418936899,0.00112793242118934,0.000994134105250671,0.000153552327461513,0.857877065500659,3.2357453557067,61
175,5.80031573217202,158.611541748047,1.02557667472435,125.672203063965,1.04026304606623,114.09400177002,1.05394081201238,132.626922607422,1,71219,-0.00717620553131454,0.00177842150168805,0.00193568140683682,0.0020140958289557,0.00192800577084038,103,0.912067532539368,0.801892753338295,0.489125093022929,0.898356395928201,0.344505816698074,0.0465204283714066,0.32510987236552,0.67597413973618,-0.00465621223079191,0.00209016846189673,0.00204105807405919,0.00204064186516798,0.00113470190593239,0.857877065500659,3.2357453557067,61
176,5.83365088005807,158.941772460938,1.02771193494996,125.916152954102,1.04228236338235,114.326644897461,1.05608984774468,132.33528137207,1,71333,-0.00719459366556907,0.00255189809303323,0.00277995537156257,0.00248334727756797,0.00275733345135284,103,0.895452260971069,0.804157963354969,0.494651844167496,0.896278333417098,0.343434035778046,0.0471176559280293,0.318604292543423,0.670876691473961,-0.00303435552260864,0.00256084164277268,0.00255365279628076,0.00266400626240665,0.00173013694660528,0.857877065500659,3.2357453557067,61
177,5.86698602794411,159.299255371094,1.03002340692879,126.202728271484,1.04465451653412,114.787109375,1.06034337814796,132.390625,1,70809,-0.00434839068973875,0.00273138286758078,0.00294103746682045,0.00258645494509708,0.00291541775822294,103,0.882197082042694,0.805843889901001,0.50095326865229,0.892070651078412,0.344325125217438,0.0497631525902036,0.313773672838199,0.666510678644081,-0.000153511590009437,0.00256797009820674,0.00259475542540747,0.00279917187041466,0.00187670201955339,0.857877065500659,3.2357453557067,61
178,5.90032117583016,159.645065307617,1.03225940186886,126.653274536133,1.04838395405674,115.106910705566,1.06329753584942,132.158233642578,1,71587,-0.00826754944751917,0.00230959364648235,0.0024139534210689,0.00235226967965657,0.00240747827639167,103,0.865285873413086,0.807665265108656,0.505594591196726,0.899628019202252,0.344087779521942,0.042928594767135,0.308114601813178,0.662608866574897,-0.000440321158205151,0.00214398692906469,0.00219482761051522,0.00249251544640366,0.00162029668937342,0.857877065500659,3.2357453557067,61
179,5.9336563237162,160.050979614258,1.0348840295614,127.076057434082,1.0518835777963,115.510116577148,1.06702214114953,132.248382568359,1,71459,-0.00959999685722007,0.00144971800574082,0.00141749533728915,0.00186006330976435,0.00145134824743615,103,0.84630811214447,0.809102655602047,0.509285044571013,0.898934497377127,0.342764139175415,0.0459914709471274,0.301921381491485,0.656423200103283,0.000808248567115697,0.00141079048698535,0.00147484107765636,0.00187867764555854,0.00109309545878719,0.857877065500659,3.2357453557067,61
180,5.96699147160225,160.485549926758,1.03769394598435,127.539505004883,1.05571980704938,115.956787109375,1.07114825028878,132.504318237305,1,70963,-0.011064500090471,0.000437170421083295,0.000312935389881081,0.00121764366768437,0.000391612967307842,103,0.828801870346069,0.812836736515273,0.519792004283923,0.895488674364313,0.342594385147095,0.0452899236544892,0.295463833265223,0.651614193757898,0.000881575838140258,0.000545676851254861,0.000612141274441489,0.00113460863039441,0.00046801391260819,0.857877065500659,3.2357453557067,61
181,6.0003266194883,161.666030883789,1.04532689451474,128.391723632812,1.06277412394834,116.676475524902,1.07779635607252,132.670303344727,1,71814,-0.0124842121861703,-0.000420074866903908,-0.00053822008590509,0.000540022473437527,-0.000432964993485295,103,0.95977783203125,0.81459975306579,0.526596485364971,0.904242057945832,0.340281903743744,0.0478978581951422,0.465898014314758,0.718380354172699,0.0110299125799216,-0.000265629146763314,-0.000206617713611612,0.000428213031095744,-9.23450391643506e-05,0.857877065500659,3.2357453557067,61
182,6.03366176737434,161.820266723633,1.04632417805417,128.729507446289,1.06557016006574,116.966415405273,1.0804746692898,132.890182495117,1,71987,-0.0154049641858703,-0.000903947018022438,-0.000914988479576093,-7.3314297026655e-05,-0.00081676624007034,103,0.960190296173096,0.816753950944847,0.531151457902121,0.90846794548208,0.338002175092697,0.0424533064109036,0.444302443496742,0.715466323905847,0.00979071765162268,-0.00087489012947938,-0.000831540467326061,-0.00012184553154566,-0.000475781960391531,0.857877065500659,3.2357453557067,61
183,6.06699691526039,162.024429321289,1.0476442862613,129.083694458008,1.06850197514262,117.464012145996,1.08507120815105,133.25048828125,1,71719,-0.0149252384237884,-0.000961983544443522,-0.000812305155686345,-0.000553196196955255,-0.000749397819938353,103,0.94885116815567,0.82070766928336,0.53731925988929,0.907203845424072,0.335761189460754,0.0410473720827272,0.424978039292238,0.709782354220801,0.0137155717339508,-0.00120311956325576,-0.00118136429748099,-0.000465716107980792,-0.000640132702114649,0.857877065500659,3.2357453557067,61
184,6.10033206314643,162.318298339844,1.04954443304465,129.332244873047,1.07055937372039,117.683570861816,1.08709937692107,133.346435546875,1,71567,-0.0155654917989281,-0.000710102160619297,-0.000417544052603522,-0.000869215034225144,-0.000393813060865362,103,0.932698011398315,0.823368312210935,0.5459080302374,0.903555286215691,0.334353655576706,0.0392394515567002,0.410370701580337,0.703643993358761,0.0157011926857691,-0.00125030878229112,-0.00125337071760383,-0.000618068257671505,-0.000608806001386902,0.857877065500659,3.2357453557067,61
185,6.13366721103248,162.774017333984,1.05249109610251,129.579254150391,1.07260401539127,118.08065032959,1.09076738970181,133.354431152344,1,70780,-0.0119594740367747,-0.000360245087175165,-2.67816266563831e-06,-0.00102542124927776,9.46154959023013e-06,103,0.912079572677612,0.829937835546765,0.559183385137044,0.897346501515017,0.334127455949783,0.0462365455075624,0.39988697372139,0.696587007741824,0.0202994754687288,-0.00108255608894476,-0.00111071331059617,-0.000635514973510037,-0.000447595642287615,0.857877065500659,3.2357453557067,61
186,6.16700235891853,163.041778564453,1.05422243084233,129.964340209961,1.07579160013603,118.361999511719,1.09336634653453,133.533660888672,1,70911,-0.0153914309694542,-0.000109647624441429,0.000212054415069019,-0.00105337883542816,0.000255504001040555,103,0.892097115516663,0.83273869122327,0.565807843634979,0.902508559137595,0.33230721950531,0.0405747667714551,0.391236902596212,0.691327434959629,0.0219874321203681,-0.000803013164274978,-0.000853630321662922,-0.000586442633247658,-0.000233430511317234,0.857877065500659,3.2357453557067,61
187,6.20033750680457,163.380386352539,1.05641185694281,130.35466003418,1.07902250784181,118.857192993164,1.09794068534148,133.622909545898,1,71046,-0.0148617923207131,-4.94983193643091e-05,0.000154617796728012,-0.000994619348872472,0.000261280337835371,103,0.86890834569931,0.83622347962353,0.577513160487571,0.903134772328579,0.331243306398392,0.0431571453995373,0.380964445570475,0.683759528199703,0.0266386004962621,-0.000517168058366458,-0.000585000082196011,-0.00052509537640236,-2.71642814410189e-05,0.857877065500659,3.2357453557067,61
188,6.23367265469062,163.730270385742,1.05867419484935,130.713912963867,1.08199625651362,119.217666625977,1.10127055253329,133.793731689453,1,71220,-0.0156578204968154,-0.000138898638089717,-8.70027805678614e-05,-0.000889421839392963,7.85211894882396e-05,103,0.846365749835968,0.839665824206683,0.588472339230553,0.907897252852317,0.330267429351807,0.0431894958251004,0.371173827576523,0.676849048483617,0.0300156057671258,-0.000303278034408427,-0.000381138156151283,-0.000479056965837103,0.000139834313296062,0.857877065500659,3.2357453557067,61
189,6.26700780257667,164.147659301758,1.06137301696429,131.067642211914,1.08492428241023,119.620269775391,1.10498959020073,133.946380615234,1,71382,-0.0150831894415244,-0.000251959285142008,-0.000335772673067744,-0.000763289315320946,-0.000153855120681507,103,0.825073480606079,0.844806814042756,0.605166568602729,0.908387523701658,0.329966008663177,0.0438910169124852,0.361996021405957,0.670606374535265,0.0333297273373469,-0.000195441897345974,-0.00027514494142161,-0.000450192827137054,0.000264866627104067,0.857877065500659,3.2357453557067,61
190,6.30034295046271,164.609100341797,1.06435667857056,131.48323059082,1.08836435286663,119.892448425293,1.1075038344453,133.808792114258,1,71770,-0.0179675640699285,-0.000265213660515053,-0.000433934163297069,-0.000624520100023647,-0.000295398783976636,103,0.800333082675934,0.84963076494357,0.61655287724676,0.913057859650908,0.328808933496475,0.0441835021118518,0.350327434861363,0.663005550292074,0.0352371043287037,-0.000181834755597882,-0.000255349659218755,-0.000424252922857269,0.000363498005480818,0.857877065500659,3.2357453557067,61
191,6.33367809834876,165.4736328125,1.06994671525215,132.024932861328,1.09284834248598,120.454307556152,1.11269399571082,134.732650756836,1,71309,-0.0162460042586446,-0.000132180000687293,-0.000326621849808924,-0.000464517483584531,-0.000272576928842166,103,0.961956918239594,0.855773231055454,0.629962557320955,0.911110827179107,0.326327264308929,0.0481435105920834,0.370668499067439,0.708074613889744,0.0449002298860949,-0.000215764517158459,-0.000276398272326623,-0.000383338178620023,0.000455479479617706,0.857877065500659,3.2357453557067,61
192,6.3670132462348,165.255035400391,1.06853327204024,131.818328857422,1.09113815912647,120.316909790039,1.1114247868923,134.591110229492,1,70965,-0.0147503607107254,9.79456380954813e-05,-7.72228868174174e-05,-0.000267878573811377,-0.000104741015596898,103,0.964444756507874,0.861856783860589,0.643190305079969,0.906982094244853,0.324561536312103,0.0521708012218345,0.359571619812584,0.707049541666109,0.0461598632834821,-0.000234285166563322,-0.000277755401693011,-0.000314825003728646,0.000554010438722718,0.857877065500659,3.2357453557067,61
193,6.40034839412085,164.796539306641,1.06556865235355,131.363082885742,1.08736981935313,119.881126403809,1.10739924752284,134.211975097656,1,70444,-0.0134920030931551,0.000324995124570402,0.000187016682103532,-2.18536315953469e-05,0.000125100535784142,103,0.963422536849976,0.861445498078852,0.648202827778093,0.900323351609729,0.323966234922409,0.0615646128088136,0.357589006870706,0.704812197152995,0.0441492690465949,-0.000178422413303186,-0.000203533761679346,-0.000212915627164905,0.000663001382388121,0.857877065500659,3.2357453557067,61
194,6.4336835420069,165.227966308594,1.06835824424058,131.283294677734,1.08670936523298,119.497062683105,1.10385146741711,133.814163208008,1,69829,-0.0143883435897662,0.000472652868770351,0.00035996869575559,0.000271983651313415,0.000325691290660878,103,0.952836811542511,0.869715065851342,0.664637901158544,0.89031262749898,0.3230220079422,0.0694869441044472,0.345214738862077,0.7000772527716,0.052372548730015,-1.04241873302516e-05,-1.92690854480686e-05,-7.51885392821209e-05,0.000780509189769986,0.857877065500659,3.2357453557067,61
195,6.46701868989294,164.672332763672,1.06476553719614,130.836929321289,1.08301453555678,119.119010925293,1.10035922268531,133.837936401367,1,69360,-0.0131628552116548,0.000540449121016001,0.000417648094341337,0.000592431549577138,0.000449004644246315,103,0.95150226354599,0.868021914648212,0.663350634371396,0.884332925336597,0.323310673236847,0.0775448796409629,0.344982698961938,0.698069307865974,0.0513203498386714,0.000274720909133628,0.000277114089974513,9.97838197670212e-05,0.000902343914513217,0.857877065500659,3.2357453557067,61
196,6.50035383777899,164.282089233398,1.06224223619485,130.398513793945,1.07938551131117,118.559516906738,1.09519090909228,133.689666748047,1,69574,-0.0138718956007729,0.000595922341207124,0.000419096487777542,0.000897496031488045,0.000505265806201549,103,0.952165842056274,0.869160893437204,0.665694081122258,0.887061403508772,0.322589933872223,0.074969400244798,0.344769597838273,0.698832454729996,0.0514252547272382,0.000644652388246658,0.000651108430774027,0.000309986573887381,0.00102177036648121,0.857877065500659,3.2357453557067,61
197,6.53368898566503,164.053573608398,1.0607646621657,130.005142211914,1.07612934240363,117.876037597656,1.08887728412661,133.42236328125,1,69256,-0.0165722902403218,0.000711682619254077,0.000450549903927892,0.00113163712879218,0.000539075656559876,103,0.953081011772156,0.870206191521312,0.665963959801317,0.883006935944512,0.322305917739868,0.0808981028151775,0.344258981171306,0.698219591031134,0.054538116538313,0.00103241249692834,0.00103472322828468,0.000542832619375066,0.00112479490034772,0.857877065500659,3.2357453557067,61
198,6.56702413355108,163.606506347656,1.05787394091303,129.405181884766,1.07116311644258,117.321708679199,1.08375668303123,133.531448364258,1,69782,-0.0133618437921709,0.0008917585107189,0.000551963424779464,0.00123836409324774,0.000583934339259721,103,0.953717470169067,0.868585977281629,0.661202029176578,0.889713382292942,0.322200655937195,0.0702901876784986,0.346865953970938,0.700273323764221,0.0536840823862302,0.0013468573198895,0.00133695900256937,0.000765478585094094,0.00118213891241706,0.857877065500659,3.2357453557067,61
199,6.60035928143713,163.074096679688,1.05443139864373,128.843109130859,1.06651050830145,116.820556640625,1.07912730218488,133.594802856445,1,70257,-0.0109358588680609,0.00104143201678178,0.000674611157768925,0.00117353468420499,0.000623370169442564,103,0.949149549007416,0.963149579401341,0.927195866604039,0.895769583843329,0.322367548942566,0.0689514483884129,0.345858775638015,0.718056826517579,0.0540501245457791,0.00149048826980961,0.00146149656763457,0.000919654429055003,0.00114429292341948,0.857877065500659,3.2357453557067,61
200,6.63369442932317,162.609573364258,1.05142780715272,128.322738647461,1.06220309448244,116.243682861328,1.07379844343729,133.381500244141,1,70431,-0.010342063084152,0.00100604619546674,0.000697143592208998,0.000920109487146502,0.0005857101719247,103,0.955110967159271,0.961981703132617,0.924351492950547,0.897393099230416,0.323125809431076,0.0668034249018908,0.351492950547344,0.720784124541507,0.0529228693850608,0.00138300841221343,0.00132996933720165,0.000930036520332885,0.000948723297260088,0.857877065500659,3.2357453557067,61
201,6.66702957720922,162.16064453125,1.04852504903896,127.756530761719,1.05751625741292,115.569854736328,1.06757397107062,133.23747253418,1,69955,-0.0100226357472901,0.000656667131533088,0.000490236085874099,0.000495864666886916,0.000374345659443869,103,0.9487664103508,0.957215352726753,0.918404688728468,0.891328168798736,0.325636774301529,0.0743081392385709,0.333314273461511,0.713408225547181,0.0555949771627715,0.000986506032530634,0.000906844924905975,0.000726831084615961,0.000540150252366962,0.857877065500659,3.2357453557067,61
202,6.70036472509526,161.810668945312,1.04626211915565,127.499366760254,1.05538755909316,115.218147277832,1.06432508121973,132.429443359375,1,71739,-0.0117675986639391,-3.07223325025516e-05,-8.61238544818421e-06,-4.61164958256461e-05,-7.94691597161585e-05,103,0.945867478847504,0.954102138771565,0.912418628639931,0.908134589093119,0.329959571361542,0.061787938629804,0.318432094118959,0.711087646109212,0.0518574960545346,0.00032569606087811,0.000219358642934106,0.000277221611993518,-0.000100634625457755,0.857877065500659,3.2357453557067,61
203,6.73369987298131,161.087310791016,1.04158491066033,126.795532226562,1.04956150497702,114.410667419434,1.05686600392872,131.951553344727,1,72170,-0.0121588176780904,-0.000948856209352072,-0.000751489449922618,-0.000624214904185169,-0.000767373568360639,103,0.937795519828796,0.95448247194125,0.912262713038659,0.911467542308664,0.330166667699814,0.0597499368527406,0.303907440764861,0.706566872601983,0.0490026831849314,-0.000504316884892784,-0.000634870793834164,-0.000385074949263986,-0.000929219180171614,0.857877065500659,3.2357453557067,61
204,6.76703502086736,160.340301513672,1.03675477483161,126.134315490723,1.04408822354354,113.650833129883,1.04984705152368,131.805694580078,1,72390,-0.0130714398983439,-0.00189566511648427,-0.0015876651740389,-0.00114388289504128,-0.00158409224945865,103,0.919491291046143,0.953184141456002,0.909006768890731,0.913300194292347,0.331075042486191,0.0585652645656178,0.292623290509739,0.699663866824185,0.0473470537451984,-0.00134877611228067,-0.00149871172787114,-0.00114690026668883,-0.00182555218915968,0.857877065500659,3.2357453557067,61
205,6.8003701687534,159.532562255859,1.0315319610758,125.250778198242,1.03677466356146,112.608131408691,1.04021511748972,131.596206665039,1,71544,-0.0132663016943393,-0.00264662711598743,-0.00231320335259382,-0.00151556497487887,-0.00234525700722984,103,0.905473530292511,0.954615341607961,0.913535726266354,0.906607192640089,0.329521745443344,0.0664647591048483,0.281113720228111,0.692879833483567,0.0452841852755052,-0.00202382247794629,-0.00218611259079317,-0.0018299327899026,-0.00260786282420522,0.857877065500659,3.2357453557067,61
206,6.83370531663945,159.10954284668,1.02879673238923,124.487365722656,1.03045544763386,111.89111328125,1.03359167843298,131.211853027344,1,71436,-0.00824217841100577,-0.00302296778883279,-0.00273519947527654,-0.00167222928424195,-0.00283730101409391,103,0.900196254253387,0.838363476865073,0.58061761576796,0.904539411206078,0.332171499729156,0.0538524849635961,0.27862702278963,0.669830765900112,0.0414686293311896,-0.00236166932094861,-0.00252739141116217,-0.00223476486884576,-0.00307568145943899,0.857877065500659,3.2357453557067,61
207,6.86704046452549,158.198669433594,1.02290705679695,123.914260864258,1.02571152024835,111.207122802734,1.02727333155101,131.008499145508,1,72610,-0.0115035146933423,-0.00293030198011723,-0.00272423253613462,-0.00158529745269251,-0.00288552038072952,103,0.867039144039154,0.952518018638388,0.907753752926594,0.920944154839364,0.333310335874557,0.0551983054931953,0.266106596887481,0.681652980236051,0.0375767200339072,-0.00225881754452066,-0.00241763326019276,-0.00220278243827961,-0.00307050523951099,0.857877065500659,3.2357453557067,61
208,6.90037561241154,157.555038452148,1.01874536140943,123.128959655762,1.01921111835109,110.43187713623,1.02011201689302,130.424026489258,1,72786,-0.00858303725816884,-0.00236754455592221,-0.00224288667476218,-0.00126698732001232,-0.00241011491603888,103,0.850626528263092,0.951703166359831,0.908045503256121,0.923422394762883,0.335684269666672,0.0538808961964934,0.258030390459704,0.675982400038241,0.0324245614566314,-0.00171230432472557,-0.00185314419154375,-0.0016755894235012,-0.00253444394362487,0.857877065500659,3.2357453557067,61
209,6.93371076029759,156.807388305664,1.01391108174329,122.224746704102,1.01172641372705,109.40064239502,1.01058600883242,130.121353149414,1,72568,-0.00757274342522174,-0.0014202043696853,-0.00135242513089595,-0.000771621067921023,-0.00146378673407948,103,0.832102537155151,0.953404622790578,0.911434792194907,0.920761803255808,0.335924386978149,0.0570210498268052,0.245852166244075,0.66875362412343,0.0319220415901383,-0.000830495542778376,-0.000942504540978474,-0.000730975874164832,-0.00154636180219657,0.857877065500659,3.2357453557067,61
210,6.96704590818363,155.812423706055,1.00747767548363,121.378379821777,1.00472053518247,108.604682922363,1.0032333508493,129.647338867188,1,72984,-0.00611360540541578,-0.000248308786045513,-0.000204232105119765,-0.000181491256571535,-0.000227058449664536,103,0.811791479587555,0.949778946983814,0.903759728159597,0.924948673104707,0.339026868343353,0.0514536283679315,0.234544557711279,0.661579990297038,0.0252448873239518,0.000188455597882599,0.000114828665234695,0.000424242152810682,-0.000315423269959856,0.857877065500659,3.2357453557067,61
211,7.00038105606968,154.698913574219,1.00027775796379,120.070526123047,0.993894657706937,107.201293945312,0.99026957628538,130.957366943359,1,70975,-0.00344231513990292,0.000932866792115939,0.000982108559290894,0.000408160217152122,0.00102984912932161,103,0.963246524333954,0.818043912175649,0.532215568862276,0.899385414686688,0.332204580307007,0.0429195970347843,0.270560056357873,0.681665289264627,0.0135524762493581,0.00110713719444959,0.00107907100626331,0.0015068982099877,0.000870746947611247,0.857877065500659,3.2357453557067,61
212,7.03371620395573,154.253143310547,0.997395423048758,119.539978027344,0.989502997780041,106.642112731934,0.985104152223223,129.942459106445,1,71453,-0.002139582954613,0.00188763784324109,0.0019580490777891,0.000907684052935026,0.00201785203212866,103,0.949478030204773,0.811087941257423,0.524260702839629,0.904972389685394,0.337425827980042,0.0429986321495517,0.255258701524079,0.673759054963565,0.0151717393062419,0.0017147442114082,0.00173618596697833,0.00224104330301416,0.00172922401245293,0.857877065500659,3.2357453557067,61
213,7.06705135184177,153.719802856445,0.993946862348917,118.828491210938,0.983613601200481,105.83895111084,0.977684964553576,129.127426147461,1,71513,-0.000777946372260391,0.0024138045264295,0.00250487225730962,0.00124954767880388,0.00251284924001439,103,0.928340256214142,0.813274043414018,0.51899654608253,0.901166893492616,0.341541767120361,0.0487549775694339,0.236404569798498,0.664219990284929,0.0159696165676372,0.0018880827150718,0.0019593521677627,0.00244637777793501,0.00207080141670529,0.857877065500659,3.2357453557067,61
214,7.10038649972782,152.780700683594,0.987874660584499,118.118072509766,0.977733046041538,105.226898193359,0.972031139296889,128.969818115234,1,71655,0.000569461470702609,0.00240589260759882,0.00250284350429528,0.00139834903411715,0.00242831922874973,103,0.909689009189606,0.809168934477706,0.50709650408206,0.901865277148467,0.344788819551468,0.0467074460051352,0.222245481822622,0.656231944196645,0.0119826104979169,0.00162742403681695,0.00174526647526926,0.00209922628655158,0.00186242067939097,0.857877065500659,3.2357453557067,61
215,7.13372164761386,152.317138671875,0.984877284849622,117.403312683105,0.971816556823084,104.321250915527,0.963665242645117,128.315505981445,1,71581,0.000859931412581755,0.00190480157486776,0.00198675521498656,0.00135394800233096,0.00185147128465315,103,0.891360700130463,0.809525805264898,0.504491415319708,0.904988874279357,0.345278710126877,0.0429604531202589,0.21015353236194,0.649902370058742,0.00959471043226979,0.00105429007170071,0.00121239609628114,0.00134262167843225,0.00123915104666014,0.857877065500659,3.2357453557067,61
216,7.16705679549991,152.174255371094,0.983953406430222,117.02611541748,0.968694272284894,103.712265014648,0.958039748886293,127.311233520508,1,71350,-0.000365979178985482,0.00110658825303431,0.00115728317709216,0.00114683448064232,0.00102250266894398,103,0.877074837684631,0.809138051857043,0.500448493342677,0.899475568554284,0.343840360641479,0.0436185769754425,0.200462508759636,0.644209849228423,0.00639607909227497,0.000370575918971233,0.000560453452768994,0.000439391914226426,0.000458931819844422,0.857877065500659,3.2357453557067,61
217,7.20039194338596,152.113708496094,0.983561912456687,116.653007507324,0.96560583775707,103.268257141113,0.953938235997677,126.506881713867,1,70464,0.00167845238229389,0.000312933195125833,0.000328058317762033,0.000828891797694376,0.000257933419098339,103,0.86548912525177,0.810333409022101,0.49987227520436,0.89165591071293,0.343156456947327,0.0509326044592919,0.190040304268846,0.638297807257645,0.0087300154378101,-0.000208214066080901,3.76872291068232e-06,-0.00031823321862493,-0.000187193174339552,0.857877065500659,3.2357453557067,61
218,7.233727091272,151.928375244141,0.98236355413951,116.331420898438,0.962943875468047,102.870933532715,0.950267967973323,125.618431091309,1,70012,0.00216286450834982,-0.000171667723011204,-0.000184610614004236,0.000459989535857402,-0.000161838867997415,103,0.856357336044312,0.810299186806071,0.495772153345141,0.8852529492837,0.342833638191223,0.0505772124369365,0.182483002913786,0.63455341796514,0.00503776686606038,-0.00052333448457014,-0.000299170117289504,-0.000710874524161187,-0.000478067355108357,0.857877065500659,3.2357453557067,61
219,7.26706223915805,151.678726196289,0.980749332138249,116.125862121582,0.961242344070142,102.482398986816,0.946678888718968,124.962364196777,1,69943,-0.000778501504738488,-0.000163408202113574,-0.000190580051201538,9.65414188089435e-05,-9.82642603817675e-05,103,0.845680356025696,0.811270129486391,0.493001444032998,0.884436407779267,0.341835230588913,0.0500366707974002,0.17464220865562,0.630596689307242,0.00661479576697643,-0.000522554027067276,-0.000295661041615016,-0.000667444666048275,-0.000339606337179083,0.857877065500659,3.2357453557067,61
220,7.30039738704409,151.459106445312,0.979329278519023,115.737503051758,0.958027666686495,101.826049804688,0.94061587769959,124.377624511719,1,69623,-0.00309211384893157,0.000310227245327082,0.000284378023141571,-0.000218104138708259,0.000386791570395704,103,0.834225475788116,0.811149572219908,0.490958447639429,0.883462128998693,0.338623940944672,0.0476226731127945,0.165476925728567,0.626262040838677,0.0070785500925425,-0.000271902691732161,-5.08083461531011e-05,-0.000285955672355313,0.000132319949719693,0.857877065500659,3.2357453557067,61
221,7.33373253493014,148.664794921875,0.961261358058964,113.632629394531,0.940604384298928,100.36629486084,0.927131423766954,128.144836425781,1,71373,0.00666084532803188,0.00100573881176858,0.000997022150497899,-0.000456296903811841,0.00105336628306698,103,0.956873118877411,0.798504569888707,0.473568436243397,0.903833246799296,0.347410589456558,0.0523509820557955,0.27710758970479,0.675964554509125,-0.0163253381089592,7.47254858489178e-05,0.000282628676428582,0.000206819664769473,0.000710412513551406,0.857877065500659,3.2357453557067,61
