frame_index,time_s,R_skin_raw,R_normalized,G_skin_raw,G_normalized,B_skin_raw,B_normalized,frame_luminance,face_detected,skin_pixel_count,BVP_detrended,BVP_butterworth,BVP_cheby1,BVP_cheby2,BVP_elliptic,gt_bpm,bisenet_conf,vote_mean,highconf_pct,roi_coverage,green_cv,hair_rej_frac,clust_agree,quality_score,BVP_pca,BVP_ham_tight,BVP_ham_adapt,BVP_el_tight,BVP_el_adapt,f_p1_adapt,f_p2_adapt,N_ham_mid
1,0,155.374877929688,1.00187757364186,120.881980895996,0.995322703718448,108.435073852539,0.994018787778863,128.131149291992,1,67591,-0.00364951727596757,-0.00044851626772199,-0.000700213232251916,0.000282204909828844,-0.00080209265175427,NaN,0.969325602054596,0.766423537650476,0.370315574558743,0.882481199080844,0.357348650693893,0.0658032170461667,0.387329674069033,0.692553528130164,-0.0139088515791024,-1.35083952255425e-07,-2.2181403289932e-06,0.000598914437672476,-1.02631950247597e-06,0.722386394274609,3,61
2,0.0333351478860461,155.29621887207,1.00137036973065,120.877418518066,0.99528513783557,108.547119140625,0.995045901216264,128.084014892578,1,67872,-0.00186448436541697,0.00030483796669174,-2.7268344113929e-05,0.000416686428070133,-0.000165246325858986,NaN,0.969478189945221,0.76538189533239,0.369224422442244,0.886149989555045,0.358186632394791,0.0610246500940046,0.387862446958982,0.693254471929539,-0.0157260618692993,0.00045425339490407,0.000432757151564305,0.00124241779989125,0.000678950883583719,0.722386394274609,3,61
3,0.0666702957720922,155.296417236328,1.00137164880938,120.851821899414,0.995074379412402,108.537002563477,0.994953163069866,128.15055847168,1,67833,-0.00133344112920902,0.000818725817701537,0.000426576128558301,0.000508448917197656,0.000272540402412885,NaN,0.96935623884201,0.76537476842638,0.368625890053514,0.885640797994569,0.358353853225708,0.0618863588886568,0.388144413486061,0.693141078670806,-0.0139796420837573,0.000785005061809213,0.000744765935519526,0.00162019831948821,0.00101283326101193,0.722386394274609,3,61
4,0.100005443658138,155.284713745117,1.00129618316439,120.893676757812,0.995419005555324,108.545356750488,0.995029745475828,128.193542480469,1,67913,-0.00239999875715358,0.000941697783674755,0.000541266082509605,0.000543458338239615,0.000397559577568279,NaN,0.969215333461761,0.76546954682216,0.369605230221018,0.886685293503238,0.358167231082916,0.0610115939001462,0.388143654381341,0.693264618582117,-0.014128896889198,0.00090624944523005,0.000848752228905415,0.00160463750665898,0.000878425234391428,0.722386394274609,3,61
5,0.133340591544184,155.321029663086,1.00153035296239,120.850456237793,0.99506313477522,108.458160400391,0.994230420984744,128.170837402344,1,67947,-0.00262127738027296,0.000671382365095851,0.000325494004366708,0.000518739709844525,0.000205311958250976,NaN,0.968800604343414,0.764816695365505,0.367698353128173,0.88131833923499,0.358551472425461,0.0655278415502549,0.385800697602543,0.691839175031423,-0.0148043371197602,0.000795536744026744,0.000723320346918415,0.00119233294436007,0.000315172380051772,0.722386394274609,3,61
6,0.16667573943023,155.413421630859,1.00212610847789,120.864334106445,0.995177402903906,108.376449584961,0.993481382109995,127.81876373291,1,67985,-0.00398885496449802,0.000141228803792536,-9.93182627854171e-05,0.000441124977955911,-0.000206386441948179,NaN,0.96888929605484,0.768017454830722,0.373214679708759,0.88181122482068,0.357530653476715,0.0650608973111794,0.383908215047437,0.692197714419553,-0.0122096795535167,0.000499180518898683,0.000416128345454145,0.000505772833938122,-0.000492823480697364,0.722386394274609,3,61
7,0.200010887316277,155.457702636719,1.00241163820638,120.826942443848,0.994869525994235,108.415962219238,0.9938435924118,127.92064666748,1,67663,-0.0019243610876597,-0.000444495641127132,-0.000556577676027883,0.000325158715450233,-0.000675663691151016,NaN,0.968670666217804,0.767238618841415,0.373601525205799,0.877634668015617,0.357242226600647,0.0691077473831667,0.38464153229978,0.691486457201383,-0.0122108106091498,0.000115658279220886,2.72650368766665e-05,-0.000246462447081102,-0.00128359342706153,0.722386394274609,3,61
8,0.233346035202323,155.464233398438,1.00245374941375,120.978561401367,0.996117931998295,108.371574401855,0.993436691555283,127.825859069824,1,67818,-0.00693252587612453,-0.000892137924034872,-0.00088319985542853,0.000185408178568618,-0.0010353908170219,NaN,0.968325853347778,0.766325557619904,0.372629685334277,0.879645122378303,0.357235580682755,0.0675901786061714,0.383600224129287,0.691252191109796,-0.0128140378052332,-0.000237441558775073,-0.000323954114068033,-0.000842964774008535,-0.00180895254678666,0.722386394274609,3,61
9,0.266681183088369,155.53581237793,1.00291530005342,120.96508026123,0.99600693046812,108.548194885254,0.995055762512374,127.966567993164,1,67516,-0.00277172480431243,-0.00108011390798538,-0.000979220831245712,3.56081452720878e-05,-0.00116084777326197,NaN,0.968028426170349,0.765581491794538,0.372356182238284,0.875727979039392,0.357334107160568,0.0732453921683075,0.383568339356597,0.690117810025885,-0.0129936236849223,-0.000462063836078114,-0.000537806858990822,-0.00112114825145372,-0.00191918774302246,0.722386394274609,3,61
10,0.300016330974415,155.53092956543,1.00288381503856,121.025733947754,0.996506343125106,108.555778503418,0.995125281153037,127.902816772461,1,67805,-0.00433458719673868,-0.000980377968767784,-0.000823594378514576,-0.000119218168625335,-0.00100577322947409,NaN,0.968002796173096,0.7645503035666,0.370680628272251,0.879476503625303,0.356733798980713,0.0685629791042453,0.384307941892191,0.690802271478353,-0.0127524593690416,-0.000511198103843534,-0.00056598259734067,-0.00103645081574763,-0.00161169613292745,0.722386394274609,3,61
11,0.333351478860461,155.156646728516,1.00047039025909,120.549278259277,0.992583283951675,108.086334228516,0.990821909444149,128.350067138672,1,67876,-0.00222026675761777,-0.000643430551187397,-0.000461249542932778,-0.000277498319920502,-0.000603786545260216,NaN,0.958742380142212,0.764094328874222,0.372031351287642,0.880397421430146,0.357650279998779,0.0692763661361661,0.429459602805115,0.697312162789634,-0.00949356409097175,-0.000402804243003252,-0.000425741570608914,-0.000670677080349894,-0.00102539342043405,0.722386394274609,3,61
12,0.366686626746507,155.12614440918,1.0002737073069,120.602279663086,0.993019688948918,108.085914611816,0.990818062839284,128.270751953125,1,67829,-0.0038761785496832,-0.000167477360660163,2.16022409703981e-05,-0.000442016587030102,-5.64945763774377e-05,NaN,0.959591448307037,0.764289610638517,0.372790399386693,0.879787799784687,0.357520878314972,0.0685629791042453,0.429609753940055,0.697707658335795,-0.0108787328135661,-0.000211439740580859,-0.000191805542687802,-0.000204132426651656,-0.000385374866513873,0.722386394274609,3,61
13,0.400021774632553,155.181213378906,1.00062879924009,120.591827392578,0.992933626641991,108.098068237305,0.990929474503847,128.326034545898,1,67532,-0.00301407608596321,0.000327789465687427,0.000519067018310083,-0.000611183781415308,0.000500404819440974,NaN,0.960417509078979,0.763573811921262,0.371675650062193,0.875935509812314,0.357954740524292,0.0734658936145375,0.428478351003968,0.696760266876465,-0.0111066491029024,-4.02296659771199e-05,3.15712300361749e-05,0.000154136314930348,8.13026448245808e-05,0.722386394274609,3,61
14,0.433356922518599,155.188217163086,1.00067396055828,120.643127441406,0.993356022957158,107.986831665039,0.989909774523096,128.138763427734,1,68117,-0.00649573484337085,0.000718301442202037,0.00092137177705262,-0.00077677617569326,0.000929717313413833,NaN,0.960093140602112,0.76471854798851,0.374370568286918,0.88352335369729,0.356839418411255,0.0653073401040248,0.428644831686657,0.698246786668917,-0.00889803262437868,1.7567946862474e-05,0.000149032408124588,0.00024051180692366,0.000228992489283807,0.722386394274609,3,61
15,0.466692070404645,155.164672851562,1.00052214375226,120.557479858398,0.992650814593972,108.141960144043,0.991331829372795,128.413177490234,1,68081,-0.00130789706191509,0.000895444734779604,0.00113288311640223,-0.00091702530882713,0.00113264937605652,NaN,0.961195707321167,0.766249026894435,0.376874605249629,0.880782964189609,0.35756915807724,0.0691109501138481,0.423392723373628,0.697169524865689,-0.0077472247773565,-8.55136995128435e-05,0.00011018088610171,1.11464421074528e-06,4.48810798410156e-05,0.722386394274609,3,61
16,0.500027218290691,155.158172607422,1.00048022932623,120.581726074219,0.992850454018362,108.103157043457,0.990976123330127,128.248092651367,1,68473,-0.00274661303343748,0.000799933967702418,0.00109965780918326,-0.00100161002965122,0.001075384342912,NaN,0.961082994937897,0.76561077602364,0.376776247572036,0.885854377975574,0.358175247907639,0.0640654108880149,0.42307186774349,0.697756811745818,-0.00760414984319486,-0.000330119780335331,-6.92200479294034e-05,-0.00049016148218564,-0.000348820452736349,0.722386394274609,3,61
17,0.533362366176737,155.134140014648,1.00032526401873,120.60082244873,0.99300769048131,108.137283325195,0.99128895721311,128.256011962891,1,67769,-0.00276638386592093,0.000462125678452112,0.000841507146260091,-0.000992673092679034,0.000810331598238398,NaN,0.961323618888855,0.765226972017688,0.376056899172188,0.876746532808942,0.357743620872498,0.0733414406955082,0.423172837137924,0.696276236042055,-0.00760351701825584,-0.000631666209892437,-0.00030856814617946,-0.00105132936288894,-0.000740541131670302,0.722386394274609,3,61
18,0.566697514062784,155.066802978516,0.999891065985718,120.642921447754,0.9933543268387,108.100769042969,0.990954232651528,128.175704956055,1,67923,-0.0050245550414928,2.16852951541972e-05,0.000469902097354777,-0.000857657565220028,0.000468134681810886,NaN,0.961715459823608,0.765734729031403,0.377559883986279,0.878738873939143,0.357862025499344,0.0707281101221279,0.422478394652769,0.696754992073196,-0.00657296947473147,-0.000864970867379002,-0.000486830564365497,-0.00145814935202169,-0.000907352411551757,0.722386394274609,3,61
19,0.60003266194883,155.126449584961,1.00027567512033,120.59561920166,0.992964847785453,108.097023010254,0.990919892960818,128.234497070312,1,67843,-0.00341126224359461,-0.000300018870465362,0.000170823437467583,-0.000577445231557563,0.000229438342079769,NaN,0.961425185203552,0.765998948552786,0.377386023613343,0.877703891533844,0.358015447854996,0.0722417718898779,0.422755479563109,0.696548498421687,-0.00689034372372786,-0.000904695838599369,-0.000482758129783961,-0.00152000764524438,-0.000697079429387928,0.722386394274609,3,61
20,0.633367809834876,155.101638793945,1.00011569188859,120.677192687988,0.993636510694697,108.041702270508,0.990412770562984,128.006576538086,1,68153,-0.00686731385084821,-0.000277990925536665,0.000145736571475058,-0.000159044483281716,0.00026628536602726,NaN,0.96150940656662,0.765879711824865,0.377562249644183,0.881714448354378,0.358406752347946,0.0679336576278203,0.4217862749989,0.697041163785957,-0.00532851026909838,-0.000668922774531585,-0.000218247775223961,-0.00115048988142428,-8.39426170792292e-05,0.722386394274609,3,61
21,0.666702957720922,154.94921875,0.999132867471689,120.410362243652,0.991439471919172,107.840713500977,0.988570316770604,128.269989013672,1,67461,-0.00416192064908139,0.000215573037167909,0.000527365697449176,0.00036213929989816,0.000680327429288422,NaN,0.960761725902557,0.766067308024884,0.377062302663761,0.872761850548541,0.35919713973999,0.076743945352929,0.367145461822386,0.684553954188625,-0.00645479729682014,-0.000151746316299446,0.00030930417597106,-0.000397482404245819,0.000820086934653227,0.722386394274609,3,61
22,0.700038105606968,154.980621337891,0.999335355473489,120.44507598877,0.991725299288894,107.78596496582,0.988068439743041,128.038635253906,1,67974,-0.00596550705481541,0.00113423195930796,0.00130588105318195,0.000919402368112249,0.00144690092084767,NaN,0.960099220275879,0.766749051107776,0.37860064142172,0.879398675222521,0.35884553194046,0.0694473193955703,0.367361049813164,0.685735254149867,-0.00550468863523782,0.00056610516990045,0.0010166276563948,0.000565069810250318,0.00180052769511683,0.722386394274609,3,61
23,0.733373253493014,154.915832519531,0.998917588682603,120.355827331543,0.9909904402623,107.887214660645,0.988996590527989,128.275390625,1,67691,-0.0019463636070256,0.00224543068210332,0.00230315621750312,0.00142746224203241,0.00240296535237062,NaN,0.960240542888641,0.766399275137512,0.376830006943316,0.875737424963776,0.35909429192543,0.0737166218174291,0.367729831144465,0.685091297487767,-0.007451280548791,0.00133288632706738,0.00175056183130755,0.00149454113504516,0.0026090249749255,0.722386394274609,3,61
24,0.76670840137906,154.961517333984,0.99921217035286,120.342788696289,0.990883082245848,107.862113952637,0.988766493618752,128.177581787109,1,67822,-0.0017744520038992,0.00319736500538356,0.00321466775710923,0.00179348762771023,0.00327703520586714,NaN,0.95952296257019,0.766324594772591,0.376500250656129,0.877432208652453,0.359158396720886,0.0722805837300766,0.367520863436643,0.685084938887582,-0.00663254842331736,0.00196376554872101,0.00232625049941672,0.00215106915846473,0.00304002227872804,0.722386394274609,3,61
25,0.800043549265106,154.882263183594,0.99870112920546,120.372291564941,0.99112600410051,107.834526062012,0.988513596833403,128.274490356445,1,67387,-0.00358502562898855,0.00364147919387135,0.00370858212833756,0.0019379242606262,0.00376896481420211,NaN,0.959984600543976,0.766042906396387,0.375844005520353,0.871804491823639,0.359184205532074,0.0792020285655144,0.367014409307433,0.683935288706276,-0.00695887974145506,0.0022901636342739,0.00257674933169544,0.00237180029174138,0.00299029121019302,0.722386394274609,3,61
26,0.833378697151152,154.917098999023,0.998925755108331,120.379463195801,0.991185054150519,107.889129638672,0.989014145033831,128.255249023438,1,67384,-0.00253085132767134,0.00336145103687167,0.00354473016169385,0.00181136059870243,0.00364677213539649,NaN,0.959574401378632,0.765587280857968,0.373708892318651,0.87176567998344,0.359453946352005,0.0790985303249845,0.369390359729313,0.684233363610117,-0.00702054029329468,0.00220603098033949,0.00239935295978021,0.00211454289171186,0.00248154102701656,0.722386394274609,3,61
27,0.866713845037198,154.939361572266,0.999069307097946,120.389030456543,0.991263829429998,107.876472473145,0.988898117443428,128.283630371094,1,67105,-0.0028929471341621,0.00235620511670187,0.00266589189556,0.00140745142202001,0.00283118511733031,NaN,0.959821939468384,0.765472021458908,0.373489307801207,0.86815617884496,0.359076589345932,0.0831478989857172,0.369346546457045,0.683615534612572,-0.00703966240529518,0.00169760427391655,0.00178515849755408,0.00146184015608254,0.00164130843684476,0.722386394274609,3,61
28,0.900048992923244,155.019470214844,0.999585858122946,120.38451385498,0.991226640462333,107.800956726074,0.98820586844415,128.107147216797,1,67387,-0.00370561696191352,0.000843064226202137,0.00122474080794885,0.000769592750969264,0.00143663853408225,NaN,0.960320591926575,0.766018173633886,0.375294938192826,0.871804491823639,0.359051436185837,0.0793055268060443,0.368409337112499,0.684276765841954,-0.00558025078809391,0.000848345523927798,0.000823587977790202,0.000588035957402352,0.00065432063721599,0.722386394274609,3,61
29,0.933384140809291,155.176940917969,1.00060124985209,120.612426757812,0.99310323848776,107.650497436523,0.986826615815866,127.735641479492,1,67105,-0.0119355872454887,-0.000820392581141489,-0.00046353065424897,-1.56562551269168e-05,-0.00025401606121502,NaN,0.960890233516693,0.767453990015647,0.380210118471053,0.86815617884496,0.35962587594986,0.0847779962740633,0.365352805305119,0.683219438039476,-0.0040135102432413,-0.000181670058639326,-0.000318852971273347,-0.000301333977541475,-0.000295623398076222,0.722386394274609,3,61
30,0.966719288695337,155.145660400391,1.00039954897566,120.530624389648,0.992429691002451,107.691139221191,0.987199176981672,127.792259216309,1,67644,-0.00906967854274954,-0.00226181620975227,-0.00202276177923274,-0.000828480855385766,-0.0018666240775365,NaN,0.960996270179749,0.76757731653953,0.380994618887115,0.875129372800662,0.359188467264175,0.0753725936659077,0.366418307610431,0.684988577388384,-0.00486232119065936,-0.00119517370938204,-0.00143868368218028,-0.00102664239538134,-0.00107353521622164,0.722386394274609,3,61
31,1.00005443658138,155.178695678711,1.0006125647793,120.611366271973,0.993094506618663,107.733749389648,0.987589782221212,127.785781860352,1,67458,-0.010299438269158,-0.00321147405891818,-0.00313156880129221,-0.0015407297883493,-0.00305256246105897,NaN,0.960321485996246,0.764767213179559,0.376115508909247,0.872723038708342,0.358872205018997,0.0767827571931277,0.392377479320466,0.689224068848166,-0.00386629815438,-0.00200417932056697,-0.00234260149261831,-0.00148140352650213,-0.00161568512218028,0.722386394274609,3,61
32,1.03338958446743,155.173843383789,1.00058127654579,120.574981689453,0.992794921843673,107.750610351562,0.987744345798542,127.804878234863,1,67507,-0.00898784016048115,-0.00356433479825758,-0.0036121406310634,-0.00203421250977915,-0.00359094367200356,103,0.960089206695557,0.764577500604876,0.373916779000696,0.873356965431588,0.359777182340622,0.0757995239080936,0.393188854489164,0.689447648867402,-0.00528601537696502,-0.00247066393701198,-0.00288859352130361,-0.00163991393309315,-0.00192074077530732,0.722386394274609,3,61
33,1.06672473235347,155.121688842773,1.00024497723085,120.619651794434,0.993162728272183,107.736976623535,0.987619366109543,127.984390258789,1,66937,-0.0107927246616163,-0.00337387078329993,-0.00346639085190454,-0.00222587852328455,-0.00345572247047505,103,0.960764229297638,0.763738042238722,0.373664789279472,0.865982715793831,0.358915328979492,0.0843381287518112,0.391188729701062,0.687682311112076,-0.00525331725325029,-0.00253149241982177,-0.00301106340413555,-0.00154419632144179,-0.00202078975263915,0.722386394274609,3,61
34,1.10005988023952,155.150512695312,1.00043083720918,120.554733276367,0.992628199681203,107.681571960449,0.987111474390735,127.809875488281,1,67640,-0.00985356831000272,-0.00279928530420656,-0.00285527772952335,-0.00208032911624095,-0.0028104004144262,103,0.961608290672302,0.764217425586438,0.375206978119456,0.875077623680397,0.358109980821609,0.0729403850134548,0.391809580130101,0.689937012209231,-0.00392994093747204,-0.00220322003858562,-0.00272556940280632,-0.00126656526060743,-0.00194927251744013,0.722386394274609,3,61
35,1.13339502812557,155.118560791016,1.0002248071432,120.607948303223,0.993066363616106,107.727432250977,0.987531873333417,127.84895324707,1,67402,-0.010647594254079,-0.00203996430516935,-0.0020341866103416,-0.00161842647007653,-0.00194291575559589,103,0.96114706993103,0.763666755684797,0.375463636093884,0.871998551024633,0.357890725135803,0.0764851997516042,0.392599626123854,0.689302411884231,-0.00457311753733857,-0.00156863369683741,-0.0021151311184491,-0.000876610657420221,-0.00172088940044863,0.722386394274609,3,61
36,1.16673017601161,155.257736206055,1.00112222845731,120.747505187988,0.994215452461588,107.933601379395,0.98942181521132,127.903358459473,1,68100,-0.00977596758322624,-0.00128022598027119,-0.00126629893931835,-0.000912214204846322,-0.00115545038725143,103,0.963684141635895,0.765403817914831,0.37798825256975,0.882170060624903,0.357399135828018,0.0655344836520027,0.38697503671072,0.690911288949764,-0.00450381287819734,-0.00075164286346227,-0.00130482029299017,-0.000419180462535643,-0.0013326106517727,0.722386394274609,3,61
37,1.20006532389766,155.224380493164,1.00090714644956,120.739074707031,0.994146037243227,108.007835388184,0.99010231458119,128.067779541016,1,67258,-0.00832672486238395,-0.000650884247107694,-0.000739125005113115,-7.35556731345678e-05,-0.000656136039676133,103,0.964076399803162,0.765098575634125,0.377367748074579,0.871262759728483,0.357246547937393,0.0787994196590497,0.386719795414672,0.688774867015102,-0.00483257907081932,0.000110968957940981,-0.000433227292011891,8.31595884598284e-05,-0.000784344807847672,0.722386394274609,3,61
38,1.23340047178371,155.141616821289,1.00037347544773,120.715934753418,0.993955506603147,108.07202911377,0.990690775187366,127.955863952637,1,67698,-0.00695610281368092,-0.000207010561781397,-0.000509282224571859,0.000765680980363586,-0.000490767021636946,103,0.963355541229248,0.764862575950053,0.380572542763449,0.876962536919011,0.356824398040771,0.0718819627959998,0.386761795030872,0.689662645456137,-0.00498447779693675,0.000893570455770303,0.000371795069971572,0.000611870809709644,-0.000107362848721667,0.722386394274609,3,61
39,1.26673561966975,155.135559082031,1.00033441435118,120.693031311035,0.993766923358333,108.046974182129,0.990461097907751,127.980392456055,1,67590,-0.00682056333159531,7.49711505853579e-05,-0.000495814068712158,0.00147539751258137,-0.000545566957625894,103,0.963293373584747,0.764417813285989,0.381328598905163,0.875563500699518,0.356600075960159,0.0733975853671175,0.386595650244119,0.68928242244347,-0.00390807833298584,0.00149739349616199,0.00100899379736062,0.00112816621060245,0.000616354637962885,0.722386394274609,3,61
40,1.3000707675558,155.103576660156,1.00012818750386,120.681175231934,0.993669302318213,108.067855834961,0.99065251895352,127.725158691406,1,67922,-0.0062782975666848,0.000273793628823419,-0.000529306728419026,0.00194868440121945,-0.000618700304125998,103,0.962597966194153,0.763836950227221,0.383130649863078,0.879864241670553,0.356205195188522,0.0680993833877403,0.386575778098407,0.689836135871625,-0.00250219424519877,0.00185763406810071,0.00141097120679929,0.00155951452997334,0.00125662302557436,0.722386394274609,3,61
41,1.33340591544184,154.847396850586,0.998476306521245,120.387351989746,0.991250009205528,107.648162841797,0.986805214705159,128.217498779297,1,66741,-0.00758937651894409,0.00047336532055326,-0.000442558240149201,0.00211752651600329,-0.000532259472708843,103,0.957465648651123,0.767024767384366,0.385130579403965,0.864565521529613,0.356598347425461,0.0787216954246334,0.371495782202844,0.684475050812281,-0.00419240627494187,0.00194440092582901,0.00154533704038855,0.00180584727549508,0.00166375469898222,0.722386394274609,3,61
42,1.36674106332789,155.07194519043,0.99992422364199,120.660491943359,0.99349899946122,107.969970703125,0.989755210945767,128.248489379883,1,67768,-0.00772828191424085,0.000703676773834391,-0.00016602335073254,0.00196270215998365,-0.000232237376318063,103,0.963671565055847,0.770742336599378,0.389977570534766,0.877130764551326,0.354787111282349,0.0687539638368646,0.360538897414709,0.686173503852881,-0.00538899907491096,0.00176078246467278,0.00141305266135348,0.00176881216781487,0.00171571178836143,0.722386394274609,3,61
43,1.40007621121394,155.076766967773,0.999955315094161,120.641265869141,0.993340695071836,108.039352416992,0.990391229575736,128.350708007812,1,67544,-0.00584083695711185,0.000904694987803537,0.000219103650938298,0.00151438632657602,0.000171168116957074,103,0.964067876338959,0.770998657665127,0.390915551344309,0.874231501016037,0.354838848114014,0.0717826587799796,0.359780291365628,0.685687533486094,-0.00636244029750307,0.00134024062650635,0.00104613313344612,0.00139165902709898,0.00136568009698684,0.722386394274609,3,61
44,1.43341135909998,155.086700439453,1.00001936742126,120.668037414551,0.993561127652134,108.028938293457,0.990295763836798,128.316452026367,1,67572,-0.00671312773844246,0.000941911897327909,0.000504726966158985,0.000844935830226319,0.000447969948546757,103,0.963585436344147,0.768306399100219,0.384671165571539,0.874593908957948,0.355097055435181,0.0709931271922445,0.359808796542947,0.685160497863911,-0.00667003989514296,0.000743536167174306,0.000504817500825582,0.00069395208465109,0.000671039250275569,0.722386394274609,3,61
45,1.46674650698603,155.043838500977,0.999742988025218,120.631958007812,0.99326405564523,108.054763793945,0.990532504881711,128.372833251953,1,67329,-0.00546910343761914,0.000676995263690647,0.000456410123911455,5.71015116985083e-05,0.000364378941468219,103,0.964327335357666,0.768475198898939,0.384767336511756,0.87144872574779,0.355706185102463,0.0747595811599643,0.358612187913084,0.684537778216227,-0.00625493405671157,5.37129849852713e-05,-0.000127368983750282,-0.000214254761949379,-0.000210678971405557,0.722386394274609,3,61
46,1.50008165487207,155.024597167969,0.999618917388546,120.645782470703,0.993377884039501,108.083778381348,0.990798480123604,128.472991943359,1,67700,-0.00541023245088013,6.29784741317972e-05,-5.13463123394821e-05,-0.000733900565338394,-0.000184151457236394,103,0.96368932723999,0.769158050221566,0.385805022156573,0.876250630978113,0.355627447366714,0.0692975757497314,0.360162481536189,0.685698826041591,-0.00602380841444064,-0.000632670412344259,-0.000752598769326181,-0.00115235396754025,-0.00106210699946349,0.722386394274609,3,61
47,1.53341680275812,155.043594360352,0.999741413774475,120.63306427002,0.993273164429539,108.058143615723,0.990563487535447,128.377349853516,1,67544,-0.00541804878391389,-0.000788237237682114,-0.000933197122015467,-0.00141635687807143,-0.00108465893928642,103,0.964112758636475,0.768792688222986,0.385348809664811,0.874231501016037,0.354901105165482,0.0715367391051112,0.359498993248845,0.685240647696667,-0.00548941546919376,-0.00121861238978607,-0.0012722665973081,-0.00191496514921969,-0.00166996790453168,0.722386394274609,3,61
48,1.56675195064417,155.077178955078,0.99995797164229,120.677864074707,0.993642038784486,107.943237304688,0.98951014724669,128.310424804688,1,67593,-0.00862838810265365,-0.00161189195827531,-0.00188522031205513,-0.00189885448707902,-0.00201902906749479,103,0.963493764400482,0.768866598612282,0.384507271463021,0.874865714914381,0.354294925928116,0.0714202508380684,0.359652626751291,0.685150046038744,-0.00475809852704167,-0.00162234954198964,-0.00160333212281048,-0.00233396235558135,-0.0018905258610603,0.722386394274609,3,61
49,1.60008709853021,155.116592407227,1.00021211474659,120.614250183105,0.993118252277071,107.85090637207,0.988663754299704,128.212951660156,1,67408,-0.00836114092699175,-0.00208075988722333,-0.00249042095210608,-0.00212046742386408,-0.00257843868321045,103,0.963204026222229,0.76888994382467,0.384168051269879,0.872471233869611,0.355172336101532,0.0750961028203104,0.358577616900071,0.684279142249256,-0.00386430619841098,-0.00179189466248501,-0.00169352971582148,-0.00232959653396359,-0.00169353341562592,0.722386394274609,3,61
50,1.63342224641626,155.207077026367,1.00079557142816,120.54150390625,0.992519271184698,107.767639160156,0.987900448017817,128.130569458008,1,67826,-0.0073607302408662,-0.00194471884104403,-0.00239885198941494,-0.0020584664169149,-0.00244032525826966,103,0.961922466754913,0.770515731430425,0.387933830684398,0.877881466716714,0.354840904474258,0.069763528817903,0.359847256214431,0.685391049606835,-0.00134941034870662,-0.00171399015615666,-0.00153084963214066,-0.00193597370444823,-0.0011681348522142,0.722386394274609,3,61
51,1.6667573943023,155.331848144531,1.00160011194843,120.543754577637,0.992537802849328,107.840927124023,0.988572275042172,128.14045715332,1,67712,-0.00527426714567181,-0.00115382257208603,-0.00149996954328202,-0.00172771219416579,-0.00152296854037722,103,0.965495049953461,0.770267210144928,0.386135396975425,0.876405948667504,0.354851961135864,0.0702812544492046,0.247843809073724,0.663750965620223,-0.00255225134632986,-0.00141429231140483,-0.00114391026952058,-0.0012851963112275,-0.00048709453999001,0.722386394274609,3,61
52,1.70009254218835,155.406188964844,1.00207947129963,120.539108276367,0.992499545955227,107.742042541504,0.987665805121012,128.160079956055,1,67602,-0.0065606742912821,9.77225419885533e-05,1.07219172647913e-08,-0.00117774071852504,-4.61587758383631e-05,103,0.96540766954422,0.769863810735383,0.384722345492737,0.874982203181424,0.354795604944229,0.0710966723185048,0.248927546522292,0.663734721266629,-0.000830325780989322,-0.000948469953926996,-0.000592878366922077,-0.000560126641924083,0.000157914586243197,0.722386394274609,3,61
53,1.7334276900744,155.329116821289,1.00158250001825,120.516525268555,0.992313601116903,107.884101867676,0.988968055713713,128.235122680664,1,67467,-0.0036964706335697,0.00143500638795644,0.00164312081237252,-0.000482906204781695,0.00154414853109468,103,0.965914011001587,0.769141456810984,0.383194747061526,0.873234879175781,0.354697436094284,0.0732840631107545,0.248299168482369,0.663241177711347,-0.00253493116174102,-0.00038721901593734,4.60766558344719e-05,7.19442745637471e-05,0.000624651839418899,0.722386394274609,3,61
54,1.76676283796044,155.295837402344,1.00136790996386,120.47484588623,0.99197041981563,107.985496520996,0.989897535325796,128.271911621094,1,67787,-0.000807710875193768,0.00245271311893632,0.002906955494561,0.000266728465772678,0.00275540056757471,103,0.965242266654968,0.77046237970899,0.388230781713308,0.877376684226194,0.356249064207077,0.0697505856771204,0.248277693363034,0.663898487569808,-0.00291211072353939,0.000199508792055069,0.000697268278205221,0.000513655330688443,0.000865878680632867,0.722386394274609,3,61
55,1.80009798584649,155.346939086914,1.00169742032248,120.395263671875,0.991315152718144,107.975692749023,0.989807664648481,128.2783203125,1,67457,0.00153707414927218,0.00288784992779016,0.00343154014985086,0.000978703225636063,0.00325915381011939,103,0.964781284332275,0.768855221350885,0.384748802941133,0.873105447767955,0.35743260383606,0.0749666714124849,0.248365625509584,0.662644823029165,-0.00420541553549227,0.000753630917568994,0.00129736697047929,0.00076462838282468,0.000935604551478883,0.722386394274609,3,61
56,1.83343313373253,155.449935913086,1.00236155735462,120.420120239258,0.991519817678705,107.920516967773,0.989301871077782,128.006576538086,1,67457,0.000430626763940845,0.00273175680291352,0.00317749150190683,0.00156850305083841,0.00303035774228999,103,0.964043378829956,0.768919459804023,0.386868671894688,0.873105447767955,0.359367817640305,0.0764551326024773,0.246749781342188,0.661911871720335,-0.00296566420341147,0.00123219399522901,0.00179926500172299,0.00090539816848473,0.000953445447451813,0.722386394274609,3,61
57,1.86676828161858,155.597595214844,1.00331368388204,120.570602416992,0.992758863621647,107.886985778809,0.988994492379881,127.626556396484,1,66921,-0.00349048028409016,0.00222074714494215,0.00243526703603306,0.00196935884421013,0.00234915874398196,103,0.964877128601074,0.767078595159467,0.38337741516116,0.866123082896525,0.361240535974503,0.0859121206238271,0.243376518581611,0.659564365598672,-0.00273923832655804,0.00160325282613638,0.00216827379907366,0.00104825088397701,0.00104131190163525,0.722386394274609,3,61
58,1.90010342950463,155.625534057617,1.00349383720142,120.563957214355,0.992704148096586,107.947937011719,0.989553229221185,127.350982666016,1,67462,-0.00197337443115209,0.00170515490511707,0.00167633009286795,0.0021400603369167,0.00165981314697014,103,0.963535368442535,0.766401826213276,0.384616524858439,0.873124959554779,0.362568289041519,0.0766064841778295,0.243173934955975,0.660541956876031,-0.00119220600006827,0.00183841867725739,0.00237479179059748,0.00127509401253644,0.00125789911201029,0.722386394274609,3,61
59,1.93343857739067,155.505813598633,1.00272186399339,120.516799926758,0.99231586260818,107.914016723633,0.989242283671499,127.203742980957,1,67325,-0.00201569560800779,0.00146303766990291,0.00131611335698695,0.00206715658257858,0.00134847441753833,103,0.96354466676712,0.765292734249288,0.384597103601931,0.87135184106646,0.364364594221115,0.0783148903125607,0.245168956554029,0.660448122402434,-0.00324875277387309,0.00190786159382444,0.00238920254215941,0.00158636312796242,0.0015592674536886,0.722386394274609,3,61
60,1.96677372527672,155.467224121094,1.00247303398535,120.463302612305,0.991875374362798,107.892654418945,0.989046456514702,126.858551025391,1,67844,-0.00115531665971391,0.00155545737213029,0.00150440892746268,0.00176714469214399,0.00154975580102962,103,0.962798178195953,0.762907061297486,0.384912446200106,0.878068983368925,0.365839004516602,0.0712353588300007,0.24460527091563,0.660804353578812,-0.00179691002345619,0.00178250739615464,0.00218398599650297,0.00188942239144776,0.00180508119747621,0.722386394274609,3,61
61,2.00010887316277,155.530731201172,1.00288253595984,120.417991638184,0.991502291121308,107.897575378418,0.989091566699036,127.491271972656,1,66957,0.000590001955904917,0.00179637219132694,0.00204693856550784,0.0012823024813066,0.00207271380595207,103,0.960417091846466,0.769130436947095,0.390205654375196,0.872540332038886,0.368442475795746,0.0784748103938075,0.270696118404349,0.665513614368896,-0.0126420980754342,0.00144458138011899,0.00174420327739093,0.00202817379940374,0.0018093374950443,0.722386394274609,3,61
62,2.03344402104881,155.548950195312,1.00300001442152,120.493186950684,0.992121437177567,107.994636535645,0.989981321373598,127.243209838867,1,67018,0.000456588770104682,0.00184904206538664,0.00249842775839813,0.000674986082909395,0.00248967082225072,103,0.962126314640045,0.768201577685597,0.391372467098391,0.873335244598504,0.369487136602402,0.0743047772941698,0.272523799576233,0.66678788974531,-0.0140210752544338,0.000903003245192293,0.00108293186059644,0.00184831891370171,0.00141804941704296,0.722386394274609,3,61
63,2.06677916893486,155.712387084961,1.00405387690319,120.90454864502,0.995508522918368,108.444541931152,0.994105581172286,127.187797546387,1,67281,-0.00146794076563156,0.00139900912854698,0.00238452213841175,1.92216362474311e-05,0.00234754986291084,103,0.964926719665527,0.768770777287298,0.391774795261664,0.877494326629627,0.369550675153732,0.0704150037822469,0.264621512759917,0.666643737320665,-0.0145341533527832,0.000206518837404314,0.000254486258909127,0.00127124112467897,0.000584873436277648,0.722386394274609,3,61
64,2.1001143168209,155.663665771484,1.00373971548932,120.874122619629,0.995257999940247,108.484153747559,0.994468700671604,126.946380615234,1,67712,-0.000155298474790455,0.00032135896865678,0.0014477242866254,-0.000608536082431618,0.00140545855962763,103,0.963316261768341,0.76937618147448,0.397270793950851,0.883115528079923,0.369398355484009,0.0668283903278817,0.265108104914934,0.667033380267507,-0.0124935924924803,-0.000553286508100378,-0.000642564378994432,0.000346233447206736,-0.000588009128213662,0.722386394274609,3,61
65,2.13344946470695,156.227783203125,1.00737721861204,121.534973144531,1.00069933641012,109.11646270752,1.00026504463626,127.19123840332,1,67654,-0.00315041553175588,-0.00123306078801012,-0.000199906184404863,-0.00114064691919731,-0.000218791662723909,103,0.956857800483704,0.769774637616894,0.396103704141662,0.880659186170628,0.370503038167953,0.0702012444351878,0.256777130694416,0.663292604673558,-0.0140230996167663,-0.00125407714796644,-0.0014777311018374,-0.00074544033165771,-0.0018626584582535,0.722386394274609,3,61
66,2.166784612593,156.186630249023,1.0071118589712,121.491149902344,1.00033850291305,108.96851348877,0.998908801698898,126.957656860352,1,68113,-0.00497209557427986,-0.00287047522354149,-0.00209238189622289,-0.00152478279166323,-0.00206416993678358,103,0.954215586185455,0.769544727144598,0.400716456476737,0.886634037124782,0.369014292955399,0.0645778553018666,0.256338731226051,0.663398131372195,-0.0099583792767533,-0.00176927617815652,-0.002115626631979,-0.00173618431750948,-0.00293080569914797,0.722386394274609,3,61
67,2.20011976047904,156.818923950195,1.01118897161386,122.074058532715,1.00513807841389,109.655143737793,1.00520310614798,127.049713134766,1,68402,-0.00436031687991634,-0.00409448699228833,-0.0035919975934487,-0.00173077614801557,-0.00350790641563409,103,0.939582467079163,0.772891630849001,0.403789362884126,0.886438152011923,0.368908315896988,0.0613231387286982,0.251381538551504,0.6599385484533,-0.0136649624152465,-0.00200200327031166,-0.00245070487934985,-0.00235988132145354,-0.00351290408166492,0.722386394274609,3,61
68,2.23345490836509,156.827239990234,1.01124259452979,122.20272064209,1.00619746143872,109.786392211914,1.00640625421169,126.738395690918,1,68685,-0.00539271474956621,-0.00449921412100923,-0.00415980845246052,-0.00175235275857986,-0.00403085696317416,103,0.936016321182251,0.771075683676688,0.406566208051248,0.890105617831919,0.370043039321899,0.0620099786172488,0.250229307709107,0.658343481993962,-0.0110937218098142,-0.00191514440845404,-0.0024382975855694,-0.00244629711294068,-0.00345466915560995,0.722386394274609,3,61
69,2.26679005625113,157.657516479492,1.01659632613424,122.815567016602,1.01124353948875,110.423606872559,1.01224756848414,126.971405029297,1,68245,-0.00535725879936289,-0.00393858162045869,-0.00359418469943386,-0.00160474482525374,-0.00344787973597972,103,0.917801558971405,0.775539111534422,0.410623488900286,0.881558891156638,0.369637310504913,0.0694706383858217,0.244691918821892,0.652381293672383,-0.0179283923766835,-0.00154603528323935,-0.00211020694971963,-0.00198694087745257,-0.00278418769524128,0.722386394274609,3,61
70,2.30012520413718,157.635467529297,1.01645415161402,122.940216064453,1.01226987961325,110.539093017578,1.01330622408144,126.600685119629,1,69149,-0.00675944495224728,-0.00260074567340746,-0.0021289710545527,-0.0013213614941572,-0.00199929782228964,103,0.915027558803558,0.774014567576296,0.414872232425632,0.893236365515282,0.370044767856598,0.0593949414834526,0.244269620674196,0.652910536713636,-0.0145511914998567,-0.000998662264460588,-0.00156761231576077,-0.00114744706468111,-0.00170726352810385,0.722386394274609,3,61
71,2.33346035202323,155.425186157227,1.00220196768556,120.717346191406,0.993967128155542,108.336265563965,0.993113017240406,127.630729675293,1,68496,3.49246489702582e-05,-0.000949470153818989,-0.000343610308932575,-0.000944615591680677,-0.000254133653819708,103,0.957872450351715,0.7791695865452,0.419367554309741,0.886174864801925,0.368021041154861,0.0630191217947059,0.347728334501285,0.684764637310073,-0.0209155993655105,-0.000414006807631604,-0.000951613167206199,-0.000212869371333267,-0.000540530774308494,0.722386394274609,3,61
72,2.36679549990927,155.26513671875,1.00116994793295,120.667930603027,0.993560248183304,108.353134155273,0.993267650756005,127.80525970459,1,68487,0.000774517516028805,0.000452656263096424,0.00107854574367085,-0.000521722341357567,0.00112557792978473,103,0.961399614810944,0.779529935121507,0.423306612933841,0.886058426268533,0.365275204181671,0.060056408000621,0.346255493743338,0.685897964195606,-0.018577494648351,7.26044659754024e-05,-0.00040045483771349,0.000508300553309719,0.000396177889203702,0.722386394274609,3,61
73,2.40013064779532,155.86799621582,1.00505726497042,121.208526611328,0.998011428389097,108.985748291016,0.999066792251472,128.124786376953,1,68405,0.00136265646177763,0.00116933741151176,0.00163806564652016,-9.49887365627381e-05,0.00166498932716049,103,0.958368718624115,0.781122237653193,0.42531978656531,0.881076277080811,0.364034384489059,0.0670676730467039,0.334200716321906,0.681925942763576,-0.0180519767036112,0.000372803971396474,-7.62320865864985e-06,0.000798071157514894,0.000890924484954839,0.722386394274609,3,61
74,2.43346579568136,155.699188232422,1.00396876897241,121.204414367676,0.997977568839145,108.948844909668,0.998728500838104,127.879112243652,1,68813,-0.000228800107725413,0.00106630055555224,0.0012255440252524,0.00029954399070554,0.00126706992512417,103,0.955720126628876,0.779910772673768,0.430049554589976,0.886331435637188,0.361618608236313,0.0628815786084134,0.332989406071527,0.681449014828932,-0.0134135786607523,0.000470408634414713,0.000204099103705092,0.000606460432227348,0.000911354290806605,0.722386394274609,3,61
75,2.46680094356741,156.503555297852,1.00915543321677,121.828651428223,1.00311743595796,109.572868347168,1.00444889184123,128.255950927734,1,68407,-0.000915971967294815,0.000359253065811322,0.000154902148342174,0.000635521505188825,0.000239849121165988,103,0.944615066051483,0.785314368412589,0.434253804435219,0.880568964407543,0.360431551933289,0.0660487867670722,0.322657038022425,0.677180241917142,-0.0165863251114449,0.000421074696418283,0.000283031612755887,7.1863275522461e-05,0.0006100244553773,0.722386394274609,3,61
76,2.50013609145346,156.533798217773,1.00935044352754,121.880683898926,1.00354586291653,109.623641967773,1.00491433102997,128.075317382812,1,68723,-0.00120954079153313,-0.000486367243502028,-0.000988424734989363,0.00089483862790014,-0.000854567546615305,103,0.941524922847748,0.786238474261407,0.440871324010884,0.884636673746541,0.359063684940338,0.0638347171268585,0.3212752644675,0.676670423717421,-0.0118316737183996,0.000326030240258021,0.000322878826594164,-0.000532141990074711,0.000260943108089518,0.722386394274609,3,61
77,2.5334712393395,157.106674194336,1.01304442289566,122.223449707031,1.00636814121092,109.996849060059,1.00833550139749,128.424667358398,1,67812,-0.000213688695674119,-0.00095949954111018,-0.00161349095289566,0.00106665823559699,-0.00145305409171605,103,0.931011617183685,0.789378477752217,0.443284374447001,0.875795890428651,0.359371900558472,0.0704903847395679,0.314590337993276,0.672268205886689,-0.0155061598317563,0.000289260724195168,0.000420260966595095,-0.000901621272342443,0.000149256069975329,0.722386394274609,3,61
78,2.56680638722555,157.027557373047,1.0125342672643,122.35115814209,1.00741967183549,110.165817260742,1.00988442426949,128.226409912109,1,68046,-0.00103162672252954,-0.00072548584224603,-0.00138400265314639,0.00114516234843706,-0.00123558865554946,103,0.928570926189423,0.788603787633856,0.447050524645093,0.878818013922432,0.357419818639755,0.0676103268801095,0.312435705258208,0.671532977824951,-0.0124146152905281,0.000374084605282738,0.000631405402964182,-0.000822817428067453,0.000455348719682792,0.722386394274609,3,61
79,2.6001415351116,156.898315429688,1.0117008982773,122.44010925293,1.0081520809132,110.146003723145,1.00970279458156,128.202438354492,1,67970,-0.00464916808737231,0.000226114045601353,-0.000358628920699392,0.00112847748446764,-0.000255278930858357,103,0.927907884120941,0.787597469471826,0.447050169192291,0.877836469539837,0.356421738862991,0.0699608673752728,0.312476092393703,0.670797944623297,-0.0113353961838436,0.000575787523161774,0.000944902029221545,-0.000261053846282626,0.00117800786489472,0.722386394274609,3,61
80,2.63347668299764,157.411499023438,1.01500997333879,122.630149841309,1.00971684441922,110.528839111328,1.01321222704617,128.415512084961,1,68114,0.000416777450922445,0.00157219282046735,0.00104601232539551,0.00102029930615155,0.00109726402424987,103,0.917362332344055,0.791090426833446,0.45018645212438,0.876560368568708,0.356431812047958,0.069029418577716,0.308570925213612,0.668228146522991,-0.0144985628096116,0.000821344134597185,0.0012815767173812,0.00061830157974421,0.00212559216422725,0.722386394274609,3,61
81,2.66681183088369,155.25944519043,1.00113324821251,120.494934082031,0.992135822774856,108.460144042969,0.994248604935018,128.684631347656,1,68234,0.00766468176580959,0.00279377270310104,0.00224652550807863,0.000830098392588575,0.00226952873188305,103,0.961148858070374,0.789225312893865,0.450801653134801,0.878104650863511,0.358044028282166,0.0760816410573186,0.3618137585368,0.688321966234555,-0.0208082087699925,0.000997184568828032,0.00152258977015219,0.00150373790314316,0.0029799995473356,0.722386394274609,3,61
82,2.70014697876973,155.270690917969,1.00120576213735,120.649780273438,0.993410801301421,108.348815917969,0.993228065695024,128.34001159668,1,68462,0.00132729206320309,0.00340162743860647,0.00274684352647131,0.000574040754892741,0.00277977912772953,103,0.964583694934845,0.79199166447567,0.456764336420204,0.881038787223638,0.355452120304108,0.0692353228836898,0.361981829335982,0.690862970834651,-0.0186470840695709,0.000995151323293511,0.00155583547442584,0.00205138043437215,0.0034151852651392,0.722386394274609,3,61
83,2.73348212665578,155.326599121094,1.00156626555746,120.832153320312,0.994912431509294,108.765396118164,0.997046835129109,128.730407714844,1,68366,0.00449208216388564,0.0031450239036066,0.00234021803672086,0.000279300085069698,0.00241103775426799,103,0.967288196086884,0.791338774634565,0.451116051838633,0.874502730982258,0.354669123888016,0.0769663711833404,0.352265746131118,0.688228333785523,-0.0200335992256223,0.000759379156171167,0.00132342451009135,0.00202044762219675,0.00322362671315742,0.722386394274609,3,61
84,2.76681727454183,155.511825561523,1.00276062991794,120.883193969727,0.995332691971588,108.566902160645,0.995227251151112,128.267547607422,1,68594,0.000438138214948258,0.00210743244575368,0.00117522921076336,-2.32994267993779e-05,0.00127894634553847,103,0.967374503612518,0.793368710577213,0.457707671224888,0.877419189787278,0.35354295372963,0.074228993182138,0.350497128028691,0.688740154715168,-0.0172934139372063,0.000315755077037545,0.000851474950251555,0.00136627701146793,0.00240082695100517,0.722386394274609,3,61
85,2.80015242242787,155.48974609375,1.00261825861638,120.955726623535,0.995929914126301,108.558151245117,0.995147031955095,127.934692382812,1,68289,-0.00186800132340326,0.000654213299574357,-0.000329571051101392,-0.000297384778544623,-0.000227720247236417,103,0.966322362422943,0.793178013052371,0.461055221192286,0.873517786561265,0.352432936429977,0.0817120124844903,0.35168182284116,0.687478635786923,-0.0139740583752709,-0.000228452392557133,0.000249912279082796,0.000273629552019943,0.00115900485599213,0.722386394274609,3,61
86,2.83348757031392,155.757522583008,1.00434491650928,121.262054443359,0.998452167911287,108.940170288086,0.998648981024791,128.105773925781,1,69218,-0.00152911657777927,-0.000728495664592778,-0.00166893729562825,-0.000510330151019139,-0.00161215766993774,103,0.961239516735077,0.794393558515608,0.46040047386518,0.881555821595048,0.351683616638184,0.0703023510532617,0.34177526077032,0.686295266872433,-0.0138529044950014,-0.000716360515253998,-0.00031958364346359,-0.000904231897168262,-0.000140505993957541,0.722386394274609,3,61
87,2.86682271819996,155.641891479492,1.00359931200119,121.245918273926,0.998319305298768,108.936126708984,0.99861191374154,128.069671630859,1,69137,-0.00184361342646122,-0.0016210593835799,-0.00244366043657566,-0.000638392757580663,-0.00245396177281923,103,0.960432827472687,0.793588575340749,0.462646629156602,0.880524211008941,0.351479172706604,0.0721872691612114,0.340714812618424,0.685418921394212,-0.0138159045175825,-0.000994348941168289,-0.000697034446628506,-0.00176794827418918,-0.00111376747973741,0.722386394274609,3,61
88,2.90015786608601,155.615112304688,1.00342663637284,121.209922790527,0.998022924303088,108.952270507812,0.998759903121462,127.878288269043,1,69262,-0.000688453640640296,-0.00180630951277776,-0.00248540255861987,-0.000671319401143126,-0.00254777848045601,103,0.958150207996368,0.792507676166825,0.466388495856314,0.882116202654168,0.35189288854599,0.0719580223642986,0.339276948398833,0.684381193333936,-0.0139297949540003,-0.000967378115970497,-0.000780276759585248,-0.00201679202180287,-0.0014924527032563,0.722386394274609,3,61
89,2.93349301397206,156.234786987305,1.00742237993023,121.78483581543,1.00275666528009,109.597663879395,1.00467619121966,128.61962890625,1,69040,-0.000711348472440976,-0.0013162879633158,-0.00187994000810365,-0.00061568716890335,-0.00195193514423853,103,0.944375693798065,0.796707222865971,0.466323870220162,0.87387980355425,0.350152760744095,0.0777175839198015,0.329461181923523,0.678892790980247,-0.0144213980800367,-0.000636412801179301,-0.000563205352259343,-0.00156291971138703,-0.00122395819731453,0.722386394274609,3,61
90,2.9668281618581,156.112640380859,1.00663476260544,121.969360351562,1.00427601050297,109.820915222168,1.00672272488473,128.322570800781,1,70724,-0.00234026774397567,-0.000395251138470473,-0.000903151440531927,-0.000493515618395539,-0.000943293804754124,103,0.939201354980469,0.791442791697302,0.46616424410384,0.895195179990886,0.349517464637756,0.0582881879398511,0.329336575985521,0.679630102211306,-0.0128401695991531,-0.000103465763081654,-0.000141448667827723,-0.000569090023366148,-0.000494112294179935,0.722386394274609,3,61
91,3.00016330974415,155.100234985352,1.00010663994682,120.692169189453,0.993759824788492,108.397941589355,0.993678398217387,129.490036010742,1,69628,0.000139263126735123,0.000591568753416017,8.77249365593581e-05,-0.000337266368206691,9.15523427244533e-05,103,0.962113380432129,0.800434691024683,0.47432067559028,0.879618985055017,0.345892876386642,0.0610179769319201,0.291089791463204,0.679070365296503,-0.0142332192449717,0.000458840396881428,0.000317744188765682,0.000605236340422312,0.000337227050727329,0.722386394274609,3,61
92,3.03349845763019,155.32356262207,1.00154668581385,120.90055847168,0.995475668475651,108.691970825195,0.996373749215889,129.186477661133,1,69798,0.00126753898851961,0.00127092140716745,0.000763956171613347,-0.000183897763802229,0.000784041058019264,103,0.966095447540283,0.801498610275366,0.479025186968108,0.881198868801131,0.344456911087036,0.0597288152711847,0.279793117281297,0.678225596953014,-0.0129684452575796,0.000863478728234044,0.000631649100820274,0.00153010321732761,0.00086580527862351,0.722386394274609,3,61
93,3.06683360551624,155.737274169922,1.00421435208829,121.271743774414,0.998531948298001,109.107154846191,1.00017971994651,129.193008422852,1,69152,0.00130970049230489,0.0013690498072543,0.000909087293595184,-6.56100961031739e-05,0.000894183471618384,103,0.962494850158691,0.802199020515194,0.481128528459047,0.87303210493757,0.345128774642944,0.0717847719324824,0.269753586302638,0.673528670394042,-0.0155068283611226,0.000971720534069904,0.000664932948562004,0.00186214488781726,0.000792509346421124,0.722386394274609,3,61
94,3.10016875340229,155.7275390625,1.00415157883992,121.260498046875,0.998439352794051,108.993728637695,0.999139947682189,128.791015625,1,69634,-0.000574874366847444,0.000791168409131797,0.000467378133110892,-3.99269063522795e-06,0.000374105714758435,103,0.960211157798767,0.803213947209696,0.490909613120028,0.879117272027169,0.344743400812149,0.0657501041548309,0.269006519803544,0.673976866187567,-0.0109785429349462,0.000740333248387189,0.000377066370646335,0.00147055438494667,3.717007665825e-05,0.722386394274609,3,61
95,3.13350390128833,156.26985168457,1.00764848169317,121.721954345703,1.00223890941608,109.420463562012,1.00305180495402,128.997772216797,1,69539,-0.00204992179266161,-0.000345124236239479,-0.000443434465338037,-5.37507341948497e-06,-0.000622849546773376,103,0.949682712554932,0.806755921137779,0.493262773407728,0.876468364003025,0.344882607460022,0.0664608016133098,0.263449287450208,0.670827991598201,-0.0143314187669565,0.000236483702301025,-0.000162693594425657,0.000488285497192456,-0.00122620943274134,0.722386394274609,3,61
96,3.16683904917438,156.341751098633,1.00811209853694,121.626884460449,1.00145611933826,109.421020507812,1.00305691044775,128.872314453125,1,69541,0.0010470339965028,-0.00173323178147206,-0.00155585749095804,-5.95503358316418e-05,-0.00178654886909668,103,0.948684513568878,0.80667999213893,0.496297148444802,0.876493571968742,0.344382256269455,0.0680489034534913,0.262607670295222,0.670140836326491,-0.0132539467432817,-0.000385096317014121,-0.000798241393649446,-0.000732859175786347,-0.00262731482343007,0.722386394274609,3,61
97,3.20017419706042,156.47688293457,1.00898344632311,121.768241882324,1.00262003351544,109.341606140137,1.00232892299236,128.616561889648,1,69342,-0.00356479680586341,-0.00295863892647992,-0.00251559818971051,-0.000144565575812782,-0.00274074015143197,103,0.947201371192932,0.807432724755559,0.496784055839174,0.873985379379884,0.344382554292679,0.072535921351147,0.262337400132676,0.669148620359697,-0.0116216314732495,-0.000934715518934434,-0.00133952667408803,-0.00175043424571012,-0.00372914610818778,0.722386394274609,3,61
98,3.23350934494647,156.498550415039,1.00912316107654,121.698959350586,1.00204957234084,109.229629516602,1.00130243899939,128.434112548828,1,69692,-0.00361886311603993,-0.0036248507140209,-0.00298048435691918,-0.000228874030347549,-0.0031530107230483,103,0.948697030544281,0.807290171994873,0.498866440911439,0.878396773380388,0.344414710998535,0.0660448701789766,0.263444871721288,0.670754087150666,-0.0102515433232872,-0.0012515125838691,-0.00162665789475108,-0.00218933156874793,-0.00418269673709593,0.722386394274609,3,61
99,3.26684449283252,156.546310424805,1.00943112387811,121.77099609375,1.00264271124742,109.208908081055,1.0011124866573,128.425659179688,1,69511,-0.0057173929179245,-0.00349167344933641,-0.00273530184240745,-0.000281624653119692,-0.00284621188584932,103,0.948594570159912,0.807387799532928,0.498050668239559,0.876115452482985,0.344089478254318,0.068300983110663,0.264145243198918,0.670527093788641,-0.0116792190926847,-0.00125589800875035,-0.00158261259950893,-0.00188260026729619,-0.00385177551602697,0.722386394274609,3,61
100,3.30017964071856,156.667739868164,1.01021411684134,121.81909942627,1.00303878631689,109.309013366699,1.0020301467017,128.296310424805,1,69660,-0.00441825178003014,-0.0025752909359586,-0.00178355256044522,-0.000275871530211142,-0.00186483540306264,103,0.947516083717346,0.807728012249976,0.496497272466265,0.877993445928913,0.344468533992767,0.0671288127048147,0.263077806488659,0.670299574644293,-0.0109971555497489,-0.000972292558030495,-0.00123596963853732,-0.000930206799977508,-0.00286014571800403,0.722386394274609,3,61
101,3.33351478860461,155.696914672852,1.00395410876237,120.647048950195,0.993388312027056,108.183242797852,0.991710265353306,128.531875610352,1,69225,0.00101688973189473,-0.00116101050437218,-0.000371663467370464,-0.000194611076745331,-0.000475141168328972,103,0.963521003723145,0.806803900325027,0.496785843264717,0.87251071338543,0.345444530248642,0.0734182001512478,0.377276995305164,0.695949518032625,-0.0173117742012838,-0.000514629371767122,-0.000706107065139113,0.000336431742102375,-0.00154424933842758,0.722386394274609,3,61
102,3.36684993649066,155.882827758789,1.00515290070305,120.691223144531,0.993752035207427,108.061531066895,0.990594540127454,128.314178466797,1,69739,-0.00138769016649226,0.000289714622407904,0.00108004219233123,-3.45939440012282e-05,0.000915161087726235,103,0.962782680988312,0.807439166033353,0.499046444600582,0.878989160574742,0.345337480306625,0.0663977816990169,0.376489482212249,0.696857754824356,-0.015114053436082,-4.06169217631204e-05,-0.000156907574139226,0.00147562649658522,-0.000327854991593642,0.722386394274609,3,61
103,3.4001850843767,155.744369506836,1.00426010375051,120.64469909668,0.993368963712798,108.174201965332,0.991627388503018,128.573348999023,1,69724,0.00121602867973963,0.00130932759215914,0.00212639160757809,0.000195744682683746,0.0019004493945236,103,0.963114857673645,0.807469450978142,0.498379324192531,0.878800100831863,0.344713151454926,0.0650869674817242,0.377875623888475,0.697433814594659,-0.0165593513985218,0.000307923459543318,0.000263698819778333,0.00210094364927798,0.00043499599750304,0.722386394274609,3,61
104,3.43352023226275,155.953262329102,1.00560707204237,120.858322143555,0.995127901372623,108.309616088867,0.992868722862301,128.28076171875,1,70205,-0.000892380758307887,0.00160592099035217,0.00247252174905568,0.000472888177158811,0.00222521463104384,103,0.964767217636108,0.809287087814258,0.501032689979346,0.8831928544471,0.343875348567963,0.0628884136369355,0.36681148066377,0.696349371922723,-0.0142507400215066,0.000456361187607698,0.000475758440181466,0.00201942644500649,0.000588604107426506,0.722386394274609,3,61
105,3.46685538014879,155.756042480469,1.00433537261415,120.709007263184,0.993898466767607,108.422172546387,0.993900522163811,128.523452758789,1,70129,0.0042138683340997,0.00118296690282956,0.00210074106509338,0.000765160467911193,0.00189134039049982,103,0.964309751987457,0.806699083118254,0.501903634730283,0.882236759340798,0.343434065580368,0.0651905900113222,0.367380113790301,0.695462782976764,-0.0130481587916683,0.000421156634067611,0.00049181876201306,0.00130542308020922,0.000228688769147393,0.722386394274609,3,61
106,3.50019052803484,156.403625488281,1.00851107270958,121.420219421387,0.999754472790781,109.003273010254,0.999227440458315,128.211212158203,1,71448,-0.00064907730796715,0.000343991315690588,0.00128770024660658,0.00103054027705009,0.0011592669267992,103,0.955300331115723,0.809297204493711,0.503862949277796,0.891706708268331,0.343502849340439,0.0537784711388456,0.349121039077371,0.691904176110932,-0.0147093642539571,0.000297573818274514,0.000404893768327552,0.000264576190712164,-0.000339938618473645,0.722386394274609,3,61
107,3.53352567592089,156.6630859375,1.01018410768656,121.813636779785,1.00299380776816,109.46036529541,1.00341758210761,128.576171875,1,71210,-0.00136025289777847,-0.000428439733360554,0.000494763881011754,0.00122596150984868,0.000452572024060389,103,0.945347845554352,0.811313954032673,0.509254318213734,0.889913645509192,0.342598050832748,0.0549244554418326,0.339601179609605,0.687732075246351,-0.0147644679023679,0.000216004515295111,0.000344882170601121,-0.00068028953097584,-0.000725623041072393,0.722386394274609,3,61
108,3.56686082380693,157.046264648438,1.01265489422747,122.235939025879,1.00647097624482,109.858543395996,1.00706766043377,128.642272949219,1,71388,-0.00324556822075772,-0.000677038206880131,0.00017192737005688,0.00130791542190143,0.000181668387615713,103,0.930625379085541,0.812676266786201,0.514526250910517,0.89170351495166,0.343595832586288,0.0523745284668615,0.329453129377486,0.682702299449425,-0.0146150010187797,0.000283593405447549,0.000419935470663829,-0.00115723643970296,-0.000607846408190183,0.722386394274609,3,61
109,3.60019597169298,157.501052856445,1.01558742818941,122.623474121094,1.00966187761735,110.420021057129,1.0122146974971,128.62532043457,1,70784,-0.000639890206600546,-0.000172132977848403,0.000558908868695234,0.00124227127963626,0.000572895722261984,103,0.911816596984863,0.815160676612417,0.523027802893309,0.887540280616403,0.342919081449509,0.0590949556756486,0.319733273056058,0.675477746271807,-0.0149393835867417,0.000533699289700687,0.000665621607604587,-0.000987532218100648,0.000129804085492848,0.722386394274609,3,61
110,3.63353111957902,157.839614868164,1.01777052040707,123.014511108398,1.01288161300366,110.755973815918,1.01529435929082,129.034057617188,1,71592,-0.00310297199591142,0.000980051761112049,0.00157276790056835,0.00100736024304877,0.00156013571079366,103,0.893664002418518,0.815277312176407,0.525128505978322,0.895571678759069,0.340863287448883,0.0506004503377533,0.313023801542072,0.670980151294285,-0.0173053294458077,0.000903246478480395,0.00102191257037654,-0.000261809967867464,0.00134415659815612,0.722386394274609,3,61
111,3.66686626746507,155.451019287109,1.00236854309229,120.505889892578,0.992226031149124,108.32209777832,0.992983141872487,129.953033447266,1,71168,0.00618806387191051,0.00237509489338247,0.00283409635321091,0.000604788559843977,0.00280303709735834,103,0.963316977024078,0.818804331534772,0.527048673561151,0.887049732020441,0.337587416172028,0.0561635298516764,0.306865445143885,0.686977034815483,-0.018120778832651,0.00124803748466215,0.00134825586021657,0.000693903956726452,0.00267475068589169,0.722386394274609,3,61
112,3.70020141535112,155.687316894531,1.00389222103004,120.837158203125,0.994953640905896,108.563720703125,0.995198086892403,130.067413330078,1,71616,0.00298467511601602,0.00347673866037682,0.00382088295726417,5.75255134953979e-05,0.00380985282450795,103,0.966603457927704,0.822856158772714,0.536653820375335,0.893480050902014,0.33460733294487,0.0511390573146693,0.295897564789991,0.68721936002412,-0.0169509264889942,0.00139212161092306,0.0014726187856074,0.00143408921815007,0.00367124869180082,0.722386394274609,3,61
113,3.73353656323716,156.220581054688,1.00733077821513,121.224021911621,0.998139014188636,108.970611572266,0.998928034723227,130.036437988281,1,71562,0.00315365294830972,0.00383439814608371,0.00408200903217909,-0.000582675161900626,0.00413602666940189,103,0.955797612667084,0.826532703576386,0.545848355272351,0.891593885102725,0.333374947309494,0.0570624073358833,0.286967943880831,0.682519547484473,-0.0139269439304858,0.00119441897662056,0.00125801625282696,0.00157096277811563,0.00396181189903069,0.722386394274609,3,61
114,3.76687171112321,156.739944458008,1.01067970149854,121.60139465332,1.00124624038392,109.252799987793,1.00151484152625,130.012756347656,1,71377,0.0011409609628979,0.00325699291252204,0.00341893941184351,-0.0012449339281767,0.00355823241163374,103,0.943703651428223,0.828833751301773,0.552180674446951,0.890176221892421,0.332297921180725,0.0549617749398252,0.28007621502725,0.678914022132488,-0.0145188000037833,0.000608671321014035,0.000662145901186236,0.000924047863669798,0.0033973286387265,0.722386394274609,3,61
115,3.80020685900925,156.714324951172,1.01051450356122,121.797149658203,1.00285805547234,109.469497680664,1.00350129821714,129.727569580078,1,71296,-0.000343151510155959,0.00187915135850218,0.00196343058703565,-0.00184461616566705,0.00217173447682756,103,0.938122749328613,0.826741098144823,0.555150359066427,0.889166032700198,0.333239555358887,0.0618959130987865,0.279791292639138,0.67593381939314,-0.00962889039432109,-0.000285778872688616,-0.000232173996262493,-0.000394941805481382,0.00211873277589836,0.722386394274609,3,61
116,3.8335420068953,157.272735595703,1.01411520857282,122.008659362793,1.00459959221317,109.704627990723,1.00565672576905,129.853393554688,1,70382,0.00160051393188726,0.000108785656624473,0.000127425795651329,-0.00229666492360737,0.000362465750608553,103,0.92284494638443,0.83443683517566,0.565400244380665,0.875692085650654,0.332117170095444,0.0708446866485014,0.271177289647921,0.670498911697064,-0.0112368297393409,-0.00129529224318828,-0.0012288281704111,-0.00200749397440903,0.000520904686707554,0.722386394274609,3,61
117,3.86687715478135,157.348449707031,1.01460342308445,122.141052246094,1.00568969382785,109.696098327637,1.00557853478287,129.920211791992,1,70366,-0.0017772308769336,-0.00151246015805963,-0.00154668855331833,-0.00253049620191318,-0.00132815100702249,103,0.921315670013428,0.834801845588305,0.566054628655885,0.87549301382305,0.331879407167435,0.0739800679332612,0.271039990904698,0.669660473932636,-0.00955884218163776,-0.00216370721894544,-0.00207075090667432,-0.00339324956920093,-0.000876726992503787,0.722386394274609,3,61
118,3.90021230266739,157.283813476562,1.01418664020028,122.122566223145,1.00553748290107,109.639144897461,1.00505644559519,129.905410766602,1,70334,-0.00272143877195363,-0.0024849426197921,-0.00257350756526596,-0.00250031097221697,-0.00239050341736443,103,0.921799063682556,0.834390195353599,0.565928285039952,0.875094870167842,0.33113420009613,0.0720764435817999,0.270722552392868,0.669940084496844,-0.00964068300701671,-0.00264863164533083,-0.00251672096869546,-0.0040675614553707,-0.00160693482664003,0.722386394274609,3,61
119,3.93354745055344,157.327651977539,1.01446931659929,122.168891906738,1.00591892109645,109.632507324219,1.00499559930005,129.927474975586,1,70358,-0.00386182450524269,-0.00250892061429395,-0.00268152384342395,-0.00219567445348261,-0.00252162369907773,103,0.923348605632782,0.834304556695756,0.56432815031695,0.875393477909248,0.330146163702011,0.06998618939196,0.270701270644419,0.670640526573517,-0.00821628780408274,-0.00259723882208847,-0.00241745099745642,-0.00375485010312953,-0.00141746316664851,0.722386394274609,3,61
120,3.96688259843948,157.175643920898,1.01348914873052,122.091369628906,1.00528061518354,109.656715393066,1.00521751343166,130.391403198242,1,70753,-0.00215317206579446,-0.00157721511473436,-0.00188974167333437,-0.00164193961974005,-0.00172008628537356,103,0.927052557468414,0.834117752368569,0.559933854394867,0.880308063653217,0.329287379980087,0.0615131947295734,0.272285274122652,0.673201633508616,-0.00852002999154634,-0.00199607604052127,-0.00176531248116095,-0.00248703934571843,-0.000360474153044297,0.722386394274609,3,61
121,4.00021774632553,155.745208740234,1.00426551523744,120.733573913574,0.994100744598487,108.357246398926,0.993305347483689,130.864135742188,1,71351,0.00238992530448551,2.62176007299674e-05,-0.000486818403348198,-0.000896424222577747,-0.000277765914713913,103,0.964116215705872,0.826365432860086,0.546957996384073,0.887748373209909,0.329603582620621,0.0569469846839113,0.306821207831705,0.6885548645154,-0.00577327182342936,-0.000977797416385039,-0.00070057067829827,-0.000596912739580772,0.0012231475842363,0.722386394274609,3,61
122,4.03355289421158,155.357711791992,1.00176688413651,120.490501403809,0.992099324818415,108.212753295898,0.991980786582767,130.400634765625,1,72715,0.00408913850677539,0.00181943183018211,0.00107079602577711,-3.84582666800509e-05,0.00132498340705584,103,0.958080768585205,0.816406518600014,0.530674551330537,0.903123641557474,0.335546165704727,0.0492206421163758,0.298700405693461,0.684666274266376,0.00244735351657382,0.000217834502021328,0.000528458709996217,0.00139426437832971,0.00281905942112566,0.722386394274609,3,61
123,4.06688804209762,154.73567199707,0.997755890025045,119.883285522461,0.987099607339565,107.379707336426,0.984344296788651,129.658096313477,1,73008,0.00146118758524255,0.00327313067943914,0.00230234390324158,0.000843496171566068,0.00257707428206887,103,0.944409787654877,0.815581854043392,0.525997150997151,0.909586993085405,0.338138163089752,0.047305799539027,0.277969537584922,0.677243797313138,0.0261202932239659,0.00131587178202814,0.0016385152676537,0.00295381103509362,0.00391413126172386,0.722386394274609,3,61
124,4.10022318998367,153.933303833008,0.992582114958639,118.8544921875,0.978628689208253,106.284736633301,0.974306756237392,129.195663452148,1,73169,0.00451019244954065,0.0039688267278989,0.00284216349688564,0.00166540808706512,0.00309469194452103,103,0.922703564167023,0.814106156067916,0.518211264333256,0.909892433003793,0.338830262422562,0.0434993471367282,0.253563667673468,0.667249960248156,0.0434592525344778,0.00208711749395999,0.00239347968660388,0.0037162426344497,0.00416645206774823,0.722386394274609,3,61
125,4.13355833786972,153.302154541016,0.988512381616335,117.77222442627,0.969717471289165,105.118629455566,0.963617111253998,128.582611083984,1,72923,0.00872994290931395,0.003718606050683,0.00253724651018913,0.00235629898184789,0.00272932170018046,103,0.897746682167053,0.814205851834583,0.514364466629184,0.902937024838414,0.340006619691849,0.0506302468982937,0.228432730414273,0.654863547487808,0.0561736864812035,0.00241133440708837,0.00266849691222187,0.00359681777086189,0.00351065872484888,0.722386394274609,3,61
126,4.16689348575576,152.533966064453,0.983559001653929,116.975982666016,0.963161345258178,103.997718811035,0.95334178058377,127.967063903809,1,73086,0.00502636938912943,0.00261420250025256,0.00148022350638037,0.00286335644115013,0.0015981644454819,103,0.874164700508118,0.811673918397504,0.505650877048956,0.907957015963724,0.341094076633453,0.043369153363563,0.212831458829324,0.646503186034225,0.0628904813891708,0.00230238883464292,0.00247567693055619,0.00280323360972302,0.00216592207956072,0.722386394274609,3,61
127,4.20022863364181,152.269775390625,0.981855465568813,116.300346374512,0.957598265174567,102.905616760254,0.943330536822138,127.088394165039,1,72306,0.00154935582393867,0.000990152666983211,-2.83235852109373e-05,0.00315261533079553,3.19273911970116e-05,103,0.855074286460876,0.810970043979753,0.500871296987802,0.899910389804351,0.340707272291183,0.0499079006322497,0.197369512903493,0.637451218890708,0.0692564710600328,0.0018883663136859,0.00194433307320206,0.00174253111350753,0.000545305278641486,0.722386394274609,3,61
128,4.23356378152785,151.822891235352,0.978973897974682,115.688636779785,0.952561547185659,102.187232971191,0.936745149292131,126.001426696777,1,72714,0.00227282150414349,-0.000690599483352483,-0.00157760428717305,0.00320457458769976,-0.00154178563144372,103,0.837060928344727,0.809069321817898,0.495722969441923,0.902707601395389,0.341431438922882,0.0440466288438381,0.181024286932365,0.63023649322122,0.0748249154366208,0.00135532889111366,0.00126442177956599,0.000857467559506605,-0.0009007468768816,0.722386394274609,3,61
129,4.2668989294139,150.298217773438,0.969142603694857,114.087509155273,0.939378120967665,100.597633361816,0.922173370801774,126.458290100098,1,73778,0.00752017130032678,-0.00199368524872228,-0.00277801242182615,0.00301202390151833,-0.00273716414108049,103,0.79956728219986,0.954729052020928,0.907221664994985,0.918390718749222,0.346575230360031,0.0510244728259516,0.162948304372577,0.645263376176514,0.0832776037348521,0.00087577781474401,0.000614484363373181,0.000458482161054703,-0.00184705591543361,0.722386394274609,3,61
130,4.30023407729995,151.333068847656,0.97581545903115,114.637184143066,0.943904056024001,100.539581298828,0.921641210503177,124.321319580078,1,71605,-0.00262432216336156,-0.00266167882417441,-0.00338822661919164,0.00257462105458256,-0.00333694832917022,103,0.805018961429596,0.811707748527803,0.490943369876405,0.897272032379735,0.33787128329277,0.042805408317983,0.15512883178549,0.61777319108918,0.0835952352380528,0.000547689750764009,0.000100133453150185,0.000606680243300526,-0.00220009346066291,0.722386394274609,3,61
131,4.33356922518599,155.469833374023,1.00248985879016,120.647331237793,0.993390636337535,108.264137268066,0.992451820833134,127.740585327148,1,71554,0.0014629302887893,-0.00270314136484788,-0.00339701227535985,0.00190613782852423,-0.0033537447240899,103,0.96413242816925,0.797677278698605,0.4753053637812,0.898355304456999,0.343818753957748,0.0442686754551161,0.390278670654331,0.701541308840081,-0.00860970857727815,0.00036560196187706,-0.000275182332746857,0.001103474965748,-0.00211407898754318,0.722386394274609,3,61
132,4.36690437307204,155.09814453125,1.00009316042483,120.128486633301,0.989118553677033,107.744689941406,0.987690073700801,127.225440979004,1,72099,0.00382460163988751,-0.00238618116112132,-0.00302763528932586,0.00103252920349104,-0.00302362333651408,103,0.952026128768921,0.795563507584479,0.469132720287383,0.908849111307198,0.346163600683212,0.0417118366317913,0.366523807542407,0.693750101356521,0.00304460710566233,0.00023327001820496,-0.000597840934881516,0.00156957130404752,-0.00191628765678944,0.722386394274609,3,61
133,4.40023952095808,154.442489624023,0.995865411664214,119.394371032715,0.983073964409045,107.000991821289,0.980872630989989,126.817665100098,1,71668,0.00621549495991419,-0.00212983764252823,-0.00265523184470131,4.63401343050189e-06,-0.00271074818980825,103,0.934621393680573,0.794054994325687,0.461614667634091,0.903700901582498,0.347519993782043,0.0475127671647437,0.342914550426969,0.683447214624315,0.0210013236178454,1.2265334675562e-05,-0.000995428767848489,0.00160602363006955,-0.00196655675906004,0.722386394274609,3,61
134,4.43357466884413,153.356399536133,0.988862160453264,118.449836730957,0.975296821546129,105.927879333496,0.971035463583095,126.702331542969,1,72356,0.00562686625606867,-0.0023283837041351,-0.00265916992166747,-0.00110021621991342,-0.00276910138313464,103,0.912402093410492,0.793193837875689,0.456271767372436,0.914162981680354,0.350664973258972,0.037207833228048,0.324700093979767,0.675726056407226,0.0352868737943706,-0.000412123088698238,-0.00157096702520619,0.000955661359571659,-0.00250628137050767,0.722386394274609,3,61
135,4.46690981673018,152.771011352539,0.985087500734574,117.757308959961,0.969594659748988,104.908828735352,0.961693878759439,126.084373474121,1,71690,0.00206909158143637,-0.00317710579331192,-0.00326115316521012,-0.0021775017912865,-0.00339466977905972,103,0.893367290496826,0.791319105407542,0.449100292927884,0.906779661016949,0.350675642490387,0.0413736402732102,0.310210629097503,0.667027987081502,0.0464041352038139,-0.00107248500313158,-0.00234481572215335,-0.000383586043070849,-0.00355492120706498,0.722386394274609,3,61
136,4.50024496461622,152.658737182617,0.984363542174202,117.288177490234,0.965731907009608,104.262817382812,0.955771925661352,125.167335510254,1,71263,0.00221320400138492,-0.00456976969535489,-0.00441121304863817,-0.00310322482842716,-0.00452833269796811,103,0.876689493656158,0.791855521097905,0.44237542623802,0.902577417516307,0.349936753511429,0.0397694889494016,0.300268021273312,0.661233963656379,0.0528040707664774,-0.00189044991542362,-0.0032265708819268,-0.00214034375157456,-0.00489049072326391,0.722386394274609,3,61
137,4.53358011250227,152.43212890625,0.982902342312814,116.516387939453,0.959377116521469,103.438652038574,0.948216844013848,124.318061828613,1,70305,0.00671124716073374,-0.00610842605555503,-0.00577082157716883,-0.0037502684306566,-0.00584607927651142,103,0.859197735786438,0.794206196809141,0.439982931512695,0.893249647426531,0.347890168428421,0.0475942419352789,0.286409216983145,0.653307437995422,0.0630091616540924,-0.00268888428495677,-0.00402836985711869,-0.00385332858572797,-0.00612133044087263,0.722386394274609,3,61
138,4.56691526038831,151.548538208008,0.977204833702394,115.907730102539,0.954365526213415,102.597694396973,0.940507828233447,123.48218536377,1,70384,0.00239859632277273,-0.00722595511567985,-0.00680895728826558,-0.00401218409851036,-0.00684994983444289,103,0.840559005737305,0.795218610290218,0.436548079108888,0.894639838318101,0.346913367509842,0.0413356551803033,0.274707319845419,0.647511232632605,0.0705116809709114,-0.0032420119280129,-0.00451633816600087,-0.005026860795764,-0.0068193864202795,0.722386394274609,3,61
139,4.60025040827436,151.811950683594,0.978903351863267,115.535903930664,0.951303969578086,101.982116699219,0.934864858895527,122.100219726562,1,69587,0.00267537197748041,-0.00738489571257996,-0.00698437681092241,-0.00382438175813731,-0.0070294119290716,103,0.824000895023346,0.794204856271047,0.43388851365916,0.880658592454788,0.343240320682526,0.0481035726489236,0.264014830356245,0.639947589457467,0.0767303359667167,-0.00334696835590954,-0.00448342102737982,-0.0052967267165955,-0.00666689281568867,0.722386394274609,3,61
140,4.63358555616041,152.44450378418,0.982982137147343,115.779174804688,0.953307022657414,101.845169067383,0.933609466943916,120.283561706543,1,68544,-0.00286502985672571,-0.00628496029297278,-0.00595053057764044,-0.00318906752167272,-0.00605214841723049,103,0.81284099817276,0.794764433551198,0.434567577030812,0.869704236610711,0.3347327709198,0.048240772461396,0.253428454715219,0.63513030360265,0.0853732218627226,-0.00289281490135884,-0.0038193783137314,-0.00455800474465575,-0.00556523082970418,0.722386394274609,3,61
141,4.66692070404645,154.928329467773,0.998998170642503,121.153099060059,0.997555046885575,109.696495056152,1.00558217157292,126.467132568359,1,72002,0.0113628567433707,-0.00399626439339079,-0.0037043092074346,-0.00217765052096143,-0.00389650372071438,103,0.944504797458649,0.922381785691138,0.823643787672565,0.917643760195759,0.356209456920624,0.050838601141925,0.34874031276909,0.712216442874,-0.00794558800309774,-0.0019039200177999,-0.00255448531735698,-0.00299176726433008,-0.00366911671500678,0.722386394274609,3,61
142,4.7002558519325,154.098220825195,0.99364552133544,120.279632568359,0.990363064890561,108.661994934082,0.99609896175194,126.3203125,1,72974,0.011070628686102,-0.000956253864880068,-0.000616538023233838,-0.000934614470724197,-0.000897136022610114,103,0.928972542285919,0.899137592384502,0.765587743579905,0.928765065991269,0.359063804149628,0.0443802420740477,0.323348041768301,0.699639423670193,0.00354344095369795,-0.000543341864475788,-0.000862594256988346,-0.00100931014640817,-0.00133597341253864,0.722386394274609,3,61
143,4.73359099981854,153.192932128906,0.987808101190248,119.201461791992,0.981485580883021,107.470138549805,0.985173275106336,126.033752441406,1,72827,0.0130379947270995,0.00217275519018253,0.00267292432104068,0.000351533474600912,0.0023470922354975,103,0.91224730014801,0.863388578411853,0.654976862976643,0.925951354718948,0.363034695386887,0.0466618351959924,0.30054787372815,0.683383221833644,0.0210767739020866,0.000924876884594999,0.000977634386767144,0.000893631168615156,0.000990273844566774,0.722386394274609,3,61
144,4.76692614770459,152.525650024414,0.983505378738001,118.261672973633,0.973747511563834,106.45825958252,0.975897432256747,125.439407348633,1,72382,0.0159990652125498,0.00472512931898426,0.00545894281354861,0.00147503386454351,0.00514944159910021,103,0.896130919456482,0.845214740312969,0.596667679809897,0.922780759571132,0.364537954330444,0.0468644424329734,0.279945290265536,0.671566425190546,0.0338961800766416,0.00220246897542975,0.00265077375605647,0.0022887019306531,0.00291248793425752,0.722386394274609,3,61
145,4.80026129559064,152.003280639648,0.980137072492312,117.430389404297,0.966902856937434,105.594223022461,0.967976853208735,124.999641418457,1,71713,0.0196154698478,0.00624341376415153,0.00719889973746541,0.00225630380166885,0.00695789070713086,103,0.879991054534912,0.812535151692627,0.489715951082788,0.914333435332517,0.363550394773483,0.0551305589555284,0.260873202906028,0.655858545120574,0.040676230535776,0.00303225831245625,0.00388136643165731,0.00294194014941952,0.00418535696117302,0.722386394274609,3,61
146,4.83359644347668,151.574096679688,0.977369638077037,116.770866394043,0.961472451008736,104.586448669434,0.958738637148559,124.008399963379,1,71976,0.0162940295440351,0.00660490283619269,0.00768180507878579,0.00257750112437645,0.0075279668538286,103,0.862770020961761,0.783654736764107,0.404495943092142,0.916238097662814,0.364867359399796,0.0473929426141861,0.249485939757697,0.644737769726531,0.0476444960564964,0.00326021334707406,0.00449711634651733,0.00285991846809377,0.00476283688593988,0.722386394274609,3,61
147,4.86693159136273,151.093307495117,0.974269446410991,116.047630310059,0.955517441922994,103.766395568848,0.951221252228738,123.32999420166,1,71277,0.0179891535926774,0.00602785370691661,0.00707919240884777,0.00241185259197012,0.00699391985308736,103,0.849372744560242,0.774892321506236,0.375591004110723,0.909319385086432,0.363306939601898,0.0495120239841806,0.235882542755728,0.636576235154984,0.0528525395333329,0.00286815202921696,0.00446237464108837,0.00225470588820417,0.00477528901362504,0.722386394274609,3,61
148,4.90026673924878,150.744125366211,0.972017874286017,115.43123626709,0.950442152943974,103.00365447998,0.944229243595296,122.780502319336,1,70236,0.0185910703455473,0.00496562254972389,0.0058621760693766,0.00183063264118106,0.00580204821082147,103,0.840729594230652,0.769681265068246,0.364926818155931,0.896130242290468,0.362031847238541,0.0514436633195963,0.223959223190387,0.630679510078254,0.0598104784521814,0.00197117060668616,0.00387596101475399,0.00144033779333912,0.00445265329402173,0.722386394274609,3,61
149,4.93360188713482,150.725448608398,0.971897444104189,115.068138122559,0.947452461475889,102.457504272461,0.939222712516966,121.882804870605,1,69606,0.0182414804540541,0.00393144621103603,0.00461751832788295,0.000994285048247286,0.00453934947357665,103,0.82936018705368,0.762415117470716,0.341867080424101,0.886012143429946,0.360133111476898,0.0575349091788546,0.213587909088297,0.623335066606606,0.0642421322320399,0.000784542221937616,0.00293827976551981,0.000714491511235984,0.00403071820923695,0.722386394274609,3,61
150,4.96693703502087,151.643585205078,0.977817709194723,116.132392883301,0.956215363258732,103.222198486328,0.946232625347601,119.707977294922,1,69195,0.0086671674771448,0.00331615056540013,0.00383197432268805,0.000117802381854264,0.00371154865376371,103,0.836657404899597,0.757872678661753,0.328679817905918,0.880780539962577,0.357848078012466,0.054479958249004,0.217891466146398,0.625600386866689,0.0783362773740134,-0.000427652838357099,0.00190022213187826,0.000261626908943386,0.00367834714162926,0.722386394274609,3,61
151,5.00027218290691,154.794784545898,0.998137055486159,121.590454101562,1.00115615764806,110.573715209961,1.01362360395199,124.538345336914,1,71743,0.0151073756781512,0.00326440755982038,0.00372592078296217,-0.000570139914197252,0.00356928260078463,103,0.94198477268219,0.900594250774756,0.768548847971231,0.91440115219414,0.375321239233017,0.0601715545699028,0.313814588182819,0.698750512230878,-0.0107982314446526,-0.0014075777345026,0.00100862473514722,0.000123040771454255,0.0034664379428171,0.722386394274609,3,61
152,5.03360733079296,154.642364501953,0.997154231069258,121.220016479492,0.998106034107515,110.194770812988,1.01014984000522,124.639305114746,1,71394,0.0173234733262705,0.00365691030104756,0.0041986583652883,-0.000883017398103392,0.00403389048645185,103,0.945512294769287,0.847377464025922,0.622335210241757,0.909952969066646,0.375550001859665,0.0614206145885112,0.312547272880074,0.688535722739359,-0.00972365351388817,-0.00195043280241128,0.000460207050972505,0.000220759980103774,0.00338239172701178,0.722386394274609,3,61
153,5.06694247867901,154.517501831055,0.996349100204957,121.272567749023,0.998538732771831,110.195266723633,1.01015438599279,124.817008972168,1,71369,0.0151292212813477,0.0042021108782072,0.00490337580525893,-0.000715484052210667,0.00476601779107104,103,0.945570170879364,0.84738004829361,0.622441115890653,0.909634331306797,0.375241309404373,0.0617392523483603,0.311003376816265,0.688190947366078,-0.0109777155404402,-0.00193655103439954,0.000370473508510272,0.000434358721186062,0.00337798527231584,0.722386394274609,3,61
154,5.10027762656505,154.348098754883,0.995256766970756,121.261276245117,0.998445760352669,110.190818786621,1.01011361198121,125.184051513672,1,71506,0.0143485469840314,0.00458919003904267,0.00541638373717351,-7.34856471656106e-05,0.00533168173812862,103,0.946531891822815,0.756836256164984,0.351956479176573,0.91138046623077,0.374050736427307,0.0574185243248066,0.311792017453081,0.671171663787348,-0.0115607395630667,-0.00134781006614835,0.000758180383310082,0.000673876131092118,0.00341765022350021,0.722386394274609,3,61
155,5.1336127744511,154.375991821289,0.995436625118128,121.35147857666,0.99918847177953,110.234298706055,1.01051219018356,125.453010559082,1,71764,0.0128412083998531,0.00462720907813963,0.00542616164394586,0.000921084065039659,0.00540047493389124,103,0.947420239448547,0.755100050164428,0.346064879326682,0.914668807912413,0.373382925987244,0.0535693801858295,0.311618638871858,0.671627696839661,-0.0144162605686343,-0.000270423897320264,0.00154306370482039,0.000921237327714971,0.00349894803557287,0.722386394274609,3,61
156,5.16694792233714,154.168365478516,0.994097823251998,121.322380065918,0.998948879342581,110.277801513672,1.01091097820073,125.894638061523,1,71600,0.0132337705290682,0.00430970785036071,0.00486026845498875,0.00205213861180244,0.00488446989875215,103,0.949397504329681,0.751177839851024,0.333826815642458,0.912578544207803,0.372333317995071,0.0536331077377994,0.312555865921788,0.671514819998935,-0.0161722420562517,0.00111387853260316,0.00255466881050747,0.00122005346398625,0.00363695779731889,0.722386394274609,3,61
157,5.20028307022319,154.051300048828,0.993342970020797,121.246086120605,0.998320687321215,110.271598815918,1.01085411838698,126.115547180176,1,71244,0.0145426847806007,0.00378335097373373,0.00389495567911589,0.00305111980098067,0.00395477662703455,103,0.949537336826324,0.751684352366515,0.334245690865196,0.908041142507552,0.372969269752502,0.0597764437476899,0.313163213744315,0.670789616429117,-0.0134248668172528,0.00254830439491288,0.00355221941936862,0.00161762290485959,0.00381986611420733,0.722386394274609,3,61
158,5.23361821810924,154.10791015625,0.993707999411797,121.443748474121,0.999948207210171,110.39266204834,1.01196389885986,126.701904296875,1,70945,0.0116893372799777,0.0032393012648733,0.00284260806739508,0.00365278165795679,0.00292852166857254,103,0.948714673519135,0.744074047971433,0.329396010994432,0.905788774832746,0.370610237121582,0.0585388897400541,0.306434561984636,0.667914168012589,-0.0122095922445214,0.00373478832158989,0.00425735792251286,0.00209230316907069,0.00396174634455222,0.722386394274609,3,61
159,5.26695336599528,154.343032836914,0.995224101267842,121.833786010742,1.003159713281,110.750205993652,1.01524148595848,127.35595703125,1,70304,0.00904012469348403,0.00277618517804531,0.0019670860162498,0.00365387438814865,0.0020783224543902,103,0.944793343544006,0.745600060688818,0.338615157032317,0.903336888226451,0.36924484372139,0.0590797538129441,0.301391101502048,0.666143807714104,-0.0126990504121826,0.00438197408228866,0.00440082290784156,0.00250734384268294,0.0038834441689959,0.722386394274609,3,61
160,5.30028851388133,155.291091918945,1.00133731046505,122.594360351562,1.009422159542,111.264907836914,1.0199597314867,127.581939697266,1,70557,0.00335618523246467,0.00230089019665268,0.00131474082364536,0.00295817559498904,0.00145283977645223,103,0.931844651699066,0.748326412215183,0.354068341907961,0.909685155101725,0.368373930454254,0.0493540651349888,0.294967189648086,0.663723232875822,-0.0135330045014669,0.00426397956766253,0.00377991646994643,0.00261908876222666,0.00334254098484437,0.722386394274609,3,61
161,5.33362366176737,153.716537475586,0.991184377080323,120.579986572266,0.992836131240275,109.226600646973,1.00127467350609,128.759872436523,1,69564,0.0112965801963538,0.00152789550004354,0.000650366287558795,0.00160632122359802,0.000813085978874397,103,0.959298729896545,0.759281620761697,0.375654073946294,0.895646911895351,0.367575585842133,0.052131481028467,0.282861825081939,0.669912334678309,-0.016500401226504,0.00328006932368425,0.00231704054417695,0.00215604553705394,0.00211152473784144,0.722386394274609,3,61
162,5.36695880965342,153.871124267578,0.992181172972567,121.036430358887,0.996594415646502,109.672668457031,1.00536375435482,129.322738647461,1,70383,0.00799237508051565,9.78668675994909e-05,-0.000454054922648535,-0.000230627204345313,-0.000279710109393253,103,0.965144753456116,0.764057608608139,0.389639543639799,0.906541815324772,0.362518072128296,0.0404693517433249,0.267607234701561,0.671144060747037,-0.0145714454400453,0.00149960638218882,0.000103620310288925,0.000931460223372783,8.20736767601677e-05,0.722386394274609,3,61
163,5.40029395753947,154.551193237305,0.996566346807472,121.914108276367,1.00382107384109,110.465209960938,1.012628941872,129.945693969727,1,70056,0.0027005158790912,-0.00222664021556779,-0.0024005118593621,-0.00227441725063609,-0.00223140486258461,103,0.947580337524414,0.768337710783754,0.396211602146854,0.903517030578949,0.35922959446907,0.0417993989966081,0.258321913897453,0.665539105477888,-0.0123605623750081,-0.000824920784791574,-0.00258764485895108,-0.00103623391004244,-0.00264249234357282,0.722386394274609,3,61
164,5.43362910542551,155.574356079102,1.00316383488945,122.890647888184,1.01186174325697,111.059707641602,1.01807867176912,130.189086914062,1,70343,-0.00702565435668712,-0.00537715286263361,-0.00530676405716922,-0.00419593229059334,-0.00515473157375512,103,0.921729862689972,0.772021854816163,0.402783503689066,0.905630013003232,0.357122123241425,0.0384045936168295,0.250941813684375,0.658880464393908,-0.0143901242793395,-0.00328909053149655,-0.00533493675041997,-0.00346872214484757,-0.00571233435814331,0.722386394274609,3,61
165,5.46696425331156,156.235610961914,1.00742769302648,123.50309753418,1.01690455470849,111.945327758789,1.02619710618377,130.430236816406,1,69970,-0.00329206907383789,-0.00889486743370715,-0.00883138986580021,-0.00567276727667597,-0.00868951270467629,103,0.894317090511322,0.775789624124625,0.417264541946548,0.897189311176078,0.357276767492294,0.0464045750628302,0.244904959268258,0.650293457296354,-0.0168305917334204,-0.00541292313881102,-0.00764473647865171,-0.00585344907835075,-0.00858112291601088,0.722386394274609,3,61
166,5.5002994011976,156.945861816406,1.01200748360947,124.302505493164,1.02348675070836,112.626075744629,1.03243748822646,131.017532348633,1,70476,-0.00834295990066425,-0.0119942409023739,-0.0121829472913735,-0.0064558290314516,-0.0120287126705067,103,0.864500522613525,0.777654804472445,0.420838299562972,0.903480546118839,0.355947405099869,0.0406384206140632,0.240379703728929,0.643229884995406,-0.0224070890227637,-0.00674873256226153,-0.00906092133076584,-0.00757379707470053,-0.0106345426650367,0.722386394274609,3,61
167,5.53363454908365,157.339431762695,1.01454527419763,124.894638061523,1.02836227462459,113.496490478516,1.04041653566843,131.849075317383,1,70042,-0.00594425309633134,-0.0137740518676264,-0.0143441131163586,-0.00640893068282584,-0.0141505784730495,103,0.838784456253052,0.779575112075612,0.426986665143771,0.898481194519986,0.353408247232437,0.0468982502950382,0.236286799348962,0.635364776300972,-0.0294884730374532,-0.0069937787590319,-0.0092784702544852,-0.00808706118457712,-0.0113632726289555,0.722386394274609,3,61
168,5.5669696969697,158.074203491211,1.01928317858961,125.676223754883,1.03479772496827,114.111396789551,1.04605335043857,132.063873291016,1,70410,-0.011598926816633,-0.0135277729320632,-0.0144477044082598,-0.005537827080435,-0.0142058794635562,103,0.81387585401535,0.783326232069308,0.437650901860531,0.90309754376964,0.351471036672592,0.0420701596870391,0.229924726601335,0.62938792968804,-0.0332911540184106,-0.00607513834232966,-0.00822912821645153,-0.00711545592073348,-0.0105275776185674,0.722386394274609,3,61
169,5.60030484485574,158.779281616211,1.02382961473499,126.401809692383,1.04077208236827,114.791786193848,1.05229044538256,132.494812011719,1,70516,-0.0146348225659903,-0.0110538528763336,-0.0121602746780816,-0.00397934985664854,-0.011886189154204,103,0.788356900215149,0.786757615292983,0.446919847977764,0.90117445590359,0.350179702043533,0.0453168730590806,0.224417153553803,0.622073479133692,-0.0405087764637489,-0.0041786970892948,-0.00611043030291083,-0.00475755701454163,-0.00825332144381601,0.722386394274609,3,61
170,5.63363999274179,159.10774230957,1.02594757232816,126.923126220703,1.04506451845026,115.372291564941,1.05761190849198,132.683059692383,1,71034,-0.0161498061246718,-0.00682786509735534,-0.00790042288344074,-0.00197517792720378,-0.00763025104929656,103,0.765258073806763,0.78820940207037,0.453191429456317,0.906230863441519,0.349031507968903,0.0410798122065728,0.219303432159248,0.616244315344563,-0.0463158367520699,-0.00170891847107637,-0.00334467861384637,-0.00149452272814175,-0.00502028022871702,0.722386394274609,3,61
171,5.66697514062784,153.616760253906,0.990541000479851,120.840454101562,0.994980778801219,109.480545043945,1.00360256883252,133.326049804688,1,70956,0.00835851239926266,-0.00191824071771464,-0.00276884515380474,0.000183702559726381,-0.00253455485009584,103,0.962083458900452,0.792387770825112,0.460863070071594,0.905836695092682,0.346569299697876,0.0438773425930654,0.3869581148881,0.699369667052865,-0.0235513557176634,0.000813075587038621,-0.000475317787184661,0.00193944815744711,-0.00154227160933647,0.722386394274609,3,61
172,5.70031028851388,153.881317138672,0.992246897941082,121.275886535645,0.998566059124761,109.910095214844,1.00754023332608,133.274993896484,1,70888,0.00598796193599477,0.00236620398092611,0.00181373393615811,0.00220259019090895,0.0019953139430833,103,0.962321698665619,0.793951961780085,0.467060715494865,0.902709861450693,0.344134420156479,0.0459071923390383,0.368228755219501,0.695671417292076,-0.0218670875057338,0.00288537392534145,0.00197117379203674,0.00475996207694779,0.00143263899563786,0.722386394274609,3,61
173,5.73364543639993,154.553131103516,0.996578842422743,121.79402923584,1.00283236241867,110.528999328613,1.01321369574985,133.184524536133,1,70651,0.00735605343068879,0.00496081994851022,0.00462762623881998,0.00384487460819172,0.00476077062460452,103,0.950620830059052,0.797587200936057,0.477233160181738,0.895200324370898,0.344576567411423,0.0512151237931122,0.350568286365373,0.689091885168151,-0.0193976098145954,0.00415506119239909,0.00361776175030595,0.00637839119727826,0.00334074350409699,0.722386394274609,3,61
174,5.76698058428597,155.357574462891,1.00176599862046,122.514274597168,1.00876274637717,111.05916595459,1.01807370615193,132.82145690918,1,70941,0.00222174637228872,0.00543993056619651,0.00511729472814777,0.00495437681670746,0.00521133415915138,103,0.931081354618073,0.800435103348792,0.484402531681256,0.898385360602799,0.344444513320923,0.0460583802950674,0.335461862674617,0.682580391011989,-0.0223638062442223,0.00450231780023964,0.00432313060173951,0.00656563787516321,0.00396075242882421,0.722386394274609,3,61
175,5.80031573217202,155.88737487793,1.00518222112314,123.010437011719,1.01284806754972,111.580558776855,1.02285328754319,132.626922607422,1,71219,0.00149905378505122,0.0041440490333556,0.00359622501192202,0.00547497792752565,0.00365823288617916,103,0.912067532539368,0.801892753338295,0.489125093022929,0.898356395928201,0.344505816698074,0.0465204283714066,0.32510987236552,0.67597413973618,-0.023240941170018,0.00405305926062298,0.00419597755563959,0.0055157370588118,0.00346188172615444,0.722386394274609,3,61
176,5.83365088005807,156.243759155273,1.00748023364503,123.285835266113,1.01511565228924,111.822677612305,1.02507277855067,132.33528137207,1,71333,0.000581873464503058,0.0019999143559972,0.00110328042356688,0.00543654079583295,0.00113523461890872,103,0.895452260971069,0.804157963354969,0.494651844167496,0.896278333417098,0.343434035778046,0.0471176559280293,0.318604292543423,0.670876691473961,-0.02448910727974,0.00311723984629621,0.00353407794552283,0.00375810460165494,0.00232713798284658,0.722386394274609,3,61
177,5.86698602794411,156.609115600586,1.00983609988171,123.51643371582,1.01701436267382,112.218971252441,1.02870558212407,132.390625,1,70809,0.0038846856423505,0.000130077302234983,-0.00103078939817846,0.00493241520467919,-0.00102354996133446,103,0.882197082042694,0.805843889901001,0.50095326865229,0.892070651078412,0.344325125217438,0.0497631525902036,0.313773672838199,0.666510678644081,-0.0236761639260801,0.00207431413791161,0.00270972343214648,0.00196660391275368,0.00117437353855603,0.722386394274609,3,61
178,5.90032117583016,156.976608276367,1.0122057408124,123.988494873047,1.02090123798682,112.547225952148,1.03171467620307,132.158233642578,1,71587,-0.000803212401783826,-0.000583910623785946,-0.00172772824027188,0.0040840935929441,-0.00173334542459666,103,0.865285873413086,0.807665265108656,0.505594591196726,0.899628019202252,0.344087779521942,0.042928594767135,0.308114601813178,0.662608866574897,-0.028619752408958,0.00124471046963899,0.00204061793890328,0.000720476382228032,0.000538133196970347,0.722386394274609,3,61
179,5.9336563237162,157.410705566406,1.01500485702388,124.414978027344,1.02441283138626,112.92081451416,1.0351393434841,132.248382568359,1,71459,-0.002963918517013,0.000174796752926127,-0.000594540734719969,0.00301434380946221,-0.000597661123770126,103,0.84630811214447,0.809102655602047,0.509285044571013,0.898934497377127,0.342764139175415,0.0459914709471274,0.301921381491485,0.656423200103283,-0.0300971223956707,0.000790357897334245,0.00168962555270173,0.000312075151129871,0.000687395051996553,0.722386394274609,3,61
180,5.96699147160225,157.888641357422,1.01808664963437,124.916229248047,1.02854005296663,113.381423950195,1.039361726676,132.504318237305,1,70963,-0.0052916895885996,0.00205880121531626,0.00193089113446726,0.00182338961227,0.00193508629591531,103,0.828801870346069,0.812836736515273,0.519792004283923,0.895488674364313,0.342594385147095,0.0452899236544892,0.295463833265223,0.651614193757898,-0.0361584674559542,0.000676737025176901,0.00162607721477039,0.000656863978697236,0.00154143255559764,0.722386394274609,3,61
181,6.0003266194883,154.097640991211,0.993641782489926,120.793670654297,0.994595571453717,109.412261962891,1.00297662131347,132.670303344727,1,71814,0.0113582563070199,0.00421656384079083,0.00477934562884318,0.000588265898192183,0.00478041359790576,103,0.95977783203125,0.81459975306579,0.526596485364971,0.904242057945832,0.340281903743744,0.0478978581951422,0.465898014314758,0.718380354172699,-0.0256372611422596,0.000707242092986451,0.00165962941192517,0.00135093556371568,0.00271093951250663,0.722386394274609,3,61
182,6.03366176737434,154.442352294922,0.995864526148171,121.268646240234,0.998506443701933,109.753372192383,1.0061035613779,132.890182495117,1,71987,0.00669561791293183,0.00565204627383631,0.00671060537883613,-0.000638419713136796,0.00668247748252924,103,0.960190296173096,0.816753950944847,0.531151457902121,0.90846794548208,0.338002175092697,0.0424533064109036,0.444302443496742,0.715466323905847,-0.02492172094096,0.0006154447001556,0.00153216606791394,0.00183273647688271,0.00365208101666272,0.722386394274609,3,61
183,6.06699691526039,154.957702636719,0.999187572685003,121.889190673828,1.00361590632692,110.313270568848,1.01123612121928,133.25048828125,1,71719,0.00315624967262712,0.00563817222207313,0.00684131806104502,-0.00180510127735944,0.00676119272591616,103,0.94885116815567,0.82070766928336,0.53731925988929,0.907203845424072,0.335761189460754,0.0410473720827272,0.424978039292238,0.709782354220801,-0.0242615034767664,0.00018099888600174,0.00103352820768649,0.00161665410398853,0.00387942364417755,0.722386394274609,3,61
184,6.10033206314643,155.505798339844,1.00272176560272,122.341209411621,1.0073377555959,110.653533935547,1.01435529813571,133.346435546875,1,71567,0.000340679729518345,0.00401389656283763,0.00501973573907216,-0.00285380033952358,0.00488293755834513,103,0.932698011398315,0.823368312210935,0.5459080302374,0.903555286215691,0.334353655576706,0.0392394515567002,0.410370701580337,0.703643993358761,-0.0224773486631608,-0.000672712714263354,9.85967932062703e-05,0.000482502528013477,0.0031552202132473,0.722386394274609,3,61
185,6.13366721103248,156.136932373047,1.00679140055435,122.717170715332,1.01043336023879,111.08048248291,1.01826911367911,133.354431152344,1,70780,0.00178207504054195,0.00125184615772835,0.00189380629848718,-0.0037069787092837,0.00172373028692866,103,0.912079572677612,0.829937835546765,0.559183385137044,0.897346501515017,0.334127455949783,0.0462365455075624,0.39988697372139,0.696587007741824,-0.0248467569142566,-0.00183397396197137,-0.00114897077639065,-0.00142166739411948,0.00158980182128569,0.722386394274609,3,61
186,6.16700235891853,156.573577880859,1.00960694800796,123.241989135742,1.01475463033457,111.462112426758,1.02176749589702,133.533660888672,1,70911,-0.00294561015976208,-0.0017158890312726,-0.00135043165151507,-0.00427365875792782,-0.00151551612019979,103,0.892097115516663,0.83273869122327,0.565807843634979,0.902508559137595,0.33230721950531,0.0405747667714551,0.391236902596212,0.691327434959629,-0.025593291584221,-0.00302690331993322,-0.00242212896997155,-0.00361887336790993,-0.000379637881441241,0.722386394274609,3,61
187,6.20033750680457,157.034545898438,1.01257933019182,123.757453918457,1.01899888408852,112.057693481445,1.02722715702852,133.622909545898,1,71046,-0.00321441951390977,-0.00383865621390509,-0.00346706729343609,-0.00446153861044159,-0.00359960024667286,103,0.86890834569931,0.83622347962353,0.577513160487571,0.903134772328579,0.331243306398392,0.0431571453995373,0.380964445570475,0.683759528199703,-0.0269098741794135,-0.00389602490303348,-0.00335638515034803,-0.0054578204605301,-0.00212863590475122,0.722386394274609,3,61
188,6.23367265469062,157.492050170898,1.01552937769326,124.261978149414,1.02315305510661,112.557037353516,1.03180461681866,133.793731689453,1,71220,-0.00502259873029515,-0.00433130481744597,-0.00364592498620476,-0.00420318433659939,-0.00375512739894986,103,0.846365749835968,0.839665824206683,0.588472339230553,0.907897252852317,0.330267429351807,0.0431894958251004,0.371173827576523,0.676849048483617,-0.0272220957337682,-0.00412223203334463,-0.00362707331521339,-0.00633793180101844,-0.00305591222330149,0.722386394274609,3,61
189,6.26700780257667,158.131881713867,1.01965509532761,124.801567077637,1.02759594317772,113.146484375,1.03720804758085,133.946380615234,1,71382,-0.00500142157799122,-0.00296709199544339,-0.00182265311713109,-0.0034782878914499,-0.00195478030181779,103,0.825073480606079,0.844806814042756,0.605166568602729,0.908387523701658,0.329966008663177,0.0438910169124852,0.361996021405957,0.670606374535265,-0.0314372134841861,-0.00353096468682321,-0.00305832982524269,-0.00591453441951904,-0.00278988809203459,0.722386394274609,3,61
190,6.30034295046271,158.757080078125,1.02368645630806,125.450019836426,1.03293519844412,113.604911804199,1.04141042842745,133.808792114258,1,71770,-0.0105773307176818,-0.000169282117372138,0.00132046304785789,-0.00233630337617234,0.00110723107129231,103,0.800333082675934,0.84963076494357,0.61655287724676,0.913057859650908,0.328808933496475,0.0441835021118518,0.350327434861363,0.663005550292074,-0.0363362555411712,-0.00215687111847196,-0.00168786273083074,-0.00422365937755391,-0.00131906565379256,0.722386394274609,3,61
191,6.33367809834876,154.57861328125,0.996743154844029,121.025482177734,0.996504270091435,109.371551513672,1.00260343070323,134.732650756836,1,71309,0.00713326945517967,0.00314541388527029,0.00465586617994551,-0.000896323423842623,0.00433794906655994,103,0.961956918239594,0.855773231055454,0.629962557320955,0.911110827179107,0.326327264308929,0.0481435105920834,0.370668499067439,0.708074613889744,-0.0204161369707471,-0.000244531798019537,0.000233010728265636,-0.00166984296440724,0.000993964552047148,0.722386394274609,3,61
192,6.3670132462348,154.839462280273,0.998425143372102,121.238655090332,0.998259501418334,109.601142883301,1.00470808307091,134.591110229492,1,70965,0.00713398155947664,0.0059207195968599,0.00707775140687931,0.000654815807142273,0.00668970578687524,103,0.964444756507874,0.861856783860589,0.643190305079969,0.906982094244853,0.324561536312103,0.0521708012218345,0.359571619812584,0.707049541666109,-0.0167208061391844,0.00181375160719141,0.00230275112723593,0.00109380888219663,0.00352065471713453,0.722386394274609,3,61
193,6.40034839412085,154.981918334961,0.99934371868056,121.220672607422,0.998111436558898,109.590614318848,1.00461156825791,134.211975097656,1,70444,0.00830209448233749,0.00736433166816742,0.00792727852840188,0.00209982771645616,0.00755586260951849,103,0.963422536849976,0.861445498078852,0.648202827778093,0.900323351609729,0.323966234922409,0.0615646128088136,0.357589006870706,0.704812197152995,-0.0136704023195993,0.00358212433578291,0.00407552312343608,0.00338082417070175,0.00556251427656143,0.722386394274609,3,61
194,6.4336835420069,155.814971923828,1.00471535738721,121.637466430664,1.00154324957162,109.571800231934,1.00443910048339,133.814163208008,1,69829,0.00138096508730257,0.00721883310173089,0.00719229347687056,0.00322004869474339,0.00692550714784219,103,0.952836811542511,0.869715065851342,0.664637901158544,0.89031262749898,0.3230220079422,0.0694869441044472,0.345214738862077,0.7000772527716,-0.0133831340890099,0.00469432029254267,0.00517587008780514,0.00467113857942635,0.00656284045821749,0.722386394274609,3,61
195,6.46701868989294,155.852645874023,1.00495828395497,121.696083068848,1.00202588950164,109.742362976074,1.00600264045388,133.837936401367,1,69360,0.00321788404699169,0.00578255477895039,0.00540913865541832,0.00384371171317591,0.0052850792600406,103,0.95150226354599,0.868021914648212,0.663350634371396,0.884332925336597,0.323310673236847,0.0775448796409629,0.344982698961938,0.698069307865974,-0.0125779167017185,0.00494225603973867,0.00538859151992948,0.00476134351998524,0.00626469824549803,0.722386394274609,3,61
196,6.50035383777899,155.893981933594,1.00522482428387,121.690086364746,1.00197651360876,109.597030639648,1.00467038634322,133.689666748047,1,69574,0.000890555338009857,0.00369385932856705,0.00333857436681073,0.0038757827917358,0.00331816939034581,103,0.952165842056274,0.869160893437204,0.665694081122258,0.887061403508772,0.322589933872223,0.074969400244798,0.344769597838273,0.698832454729996,-0.0101881381476362,0.00431667735930051,0.00470008977549873,0.0037934415735431,0.00476870519023266,0.722386394274609,3,61
197,6.53368898566503,156.106491088867,1.00659511116485,121.769790649414,1.00263278581348,109.339324951172,1.00230801144955,133.42236328125,1,69256,-0.00491770556569177,0.00160767046639004,0.00159115979284601,0.00332152830717382,0.00158127454997847,103,0.953081011772156,0.870206191521312,0.665963959801317,0.883006935944512,0.322305917739868,0.0808981028151775,0.344258981171306,0.698219591031134,-0.00930568787090209,0.0029930061376793,0.00328447049506734,0.00217882851853682,0.00247823711760312,0.722386394274609,3,61
198,6.56702413355108,156.15641784668,1.00691704544177,121.739349365234,1.00238213719695,109.346870422363,1.00237718039886,133.531448364258,1,69782,-0.00361796778247225,-6.98431410521374e-05,0.000387761507772649,0.00228725246398039,0.000298708284220198,103,0.953717470169067,0.868585977281629,0.661202029176578,0.889713382292942,0.322200655937195,0.0702901876784986,0.346865953970938,0.700273323764221,-0.00967664521068652,0.00127243778994803,0.00144445047161546,0.000441312416256147,-4.47610125621356e-05,0.722386394274609,3,61
199,6.60035928143713,156.170532226562,1.00700805681284,121.686241149902,1.00194485273088,109.289176940918,1.00184830719896,133.594802856445,1,70257,-0.00313917223032151,-0.00127226499632986,-0.000443006550193238,0.000960540417710772,-0.000641202906703775,103,0.949149549007416,0.963149579401341,0.927195866604039,0.895769583843329,0.322367548942566,0.0689514483884129,0.345858775638015,0.718056826517579,-0.00858904106784577,-0.000499914676314306,-0.0004709163585966,-0.00095827525775832,-0.00226001091252043,0.722386394274609,3,61
200,6.63369442932317,156.009201049805,1.00596777224382,121.542343139648,1.00076001975938,109.086387634277,0.999989347974797,133.381500244141,1,70431,-0.00394019910852866,-0.00217541531882511,-0.0012587981634565,-0.000422614782603775,-0.00151548630893329,103,0.955110967159271,0.961981703132617,0.924351492950547,0.897393099230416,0.323125809431076,0.0668034249018908,0.351492950547344,0.720784124541507,-0.0086129168457702,-0.00201463125119561,-0.0021463393112006,-0.00175103378205065,-0.00379961441752326,0.722386394274609,3,61
201,6.66702957720922,155.962173461914,1.00566453219448,121.452919006348,1.00002371589114,108.877250671387,0.998072200109753,133.23747253418,1,69955,-0.00568804159615655,-0.0029958873587524,-0.00232379552192194,-0.00162297468708662,-0.00253726799985333,103,0.9487664103508,0.957215352726753,0.918404688728468,0.891328168798736,0.325636774301529,0.0743081392385709,0.333314273461511,0.713408225547181,-0.00635326729766897,-0.00305504683950969,-0.00335780667863146,-0.00190892709244652,-0.00454415515795896,0.722386394274609,3,61
202,6.70036472509526,155.741027832031,1.00423855619347,121.380844116211,0.999430262888554,108.708824157715,0.996528242854948,132.429443359375,1,71739,-0.00819575123051947,-0.00381364733393272,-0.00361754941843443,-0.00244193495936602,-0.00369529732308182,103,0.945867478847504,0.954102138771565,0.912418628639931,0.908134589093119,0.329959571361542,0.061787938629804,0.318432094118959,0.711087646109212,-0.00354302928571126,-0.00352180743594184,-0.00399760993275541,-0.00160244028097256,-0.00460780959778849,0.722386394274609,3,61
203,6.73369987298131,155.199111938477,1.00074421149768,120.896415710449,0.995441557648891,108.107566833496,0.991016547650352,131.951553344727,1,72170,-0.00936571031229971,-0.00451523625474576,-0.00483292052253366,-0.00275665357654635,-0.00474562167579504,103,0.937795519828796,0.95448247194125,0.912262713038659,0.911467542308664,0.330166667699814,0.0597499368527406,0.303907440764861,0.706566872601983,0.00777966489997636,-0.00342643161018467,-0.00406835709305225,-0.00109488102529504,-0.00424826711105387,0.722386394274609,3,61
204,6.76703502086736,154.572784423828,0.996705569607543,120.26097869873,0.990209471941337,107.326789855957,0.983859204945956,131.805694580078,1,72390,-0.0102446815287601,-0.00487335957947174,-0.00555136050494498,-0.00254044734684096,-0.00534786483871383,103,0.919491291046143,0.953184141456002,0.909006768890731,0.913300194292347,0.331075042486191,0.0585652645656178,0.292623290509739,0.699663866824185,0.0192965181499833,-0.00286394892220954,-0.0036562671051294,-0.000621661810374138,-0.00374354059781839,0.722386394274609,3,61
205,6.8003701687534,153.972412109375,0.992834290249511,119.480667114258,0.983784512404412,106.348983764648,0.974895706411459,131.596206665039,1,71544,-0.0106702993877091,-0.00469987872365761,-0.00548565698540917,-0.00186370911196487,-0.00526027997195889,103,0.905473530292511,0.954615341607961,0.913535726266354,0.906607192640089,0.329521745443344,0.0664647591048483,0.281113720228111,0.692879833483567,0.0297083224195275,-0.00197794127084538,-0.0028969350988614,-0.000301889198336305,-0.00328509355435632,0.722386394274609,3,61
206,6.83370531663945,153.363632202148,0.988908797631521,118.72730255127,0.977581430289433,105.637588500977,0.968374382337033,131.211853027344,1,71436,-0.00685001953016812,-0.00397528126273603,-0.00464936468979216,-0.000876015221202671,-0.00448174303227405,103,0.900196254253387,0.838363476865073,0.58061761576796,0.904539411206078,0.332171499729156,0.0538524849635961,0.27862702278963,0.669830765900112,0.0392343337578988,-0.000929233398482116,-0.00194480079514899,-0.00011376038251758,-0.00292647383577788,0.722386394274609,3,61
207,6.86704046452549,152.673751831055,0.984460358594888,118.029968261719,0.971839692394946,104.740791320801,0.960153488356418,131.008499145508,1,72610,-0.00858782029208666,-0.00288096463212636,-0.00336122384638776,0.000223498490752907,-0.00326901715160111,103,0.867039144039154,0.952518018638388,0.907753752926594,0.920944154839364,0.333310335874557,0.0551983054931953,0.266106596887481,0.681652980236051,0.0471479931549446,0.000126017553877411,-0.000951899610116891,6.05328880620146e-05,-0.00259967289593824,0.722386394274609,3,61
208,6.90037561241154,151.919296264648,0.979595530236768,117.088966369629,0.964091634822619,103.815307617188,0.951669626479533,130.424026489258,1,72786,-0.00448158498080742,-0.00172170703740232,-0.00208976295897544,0.00122807120641451,-0.00202032237540357,103,0.850626528263092,0.951703166359831,0.908045503256121,0.923422394762883,0.335684269666672,0.0538808961964934,0.258030390459704,0.675982400038241,0.0528058264326457,0.00104908991107023,-5.54481161971764e-05,0.000352464017200407,-0.00218434060153233,0.722386394274609,3,61
209,6.93371076029759,151.006454467773,0.973709406709219,115.968795776367,0.954868331107317,102.543510437012,0.940011126637885,130.121353149414,1,72568,-0.00290581999681877,-0.000788175785543457,-0.00123126362657515,0.00195859504293779,-0.00110199281978671,103,0.832102537155151,0.953404622790578,0.911434792194907,0.920761803255808,0.335924386978149,0.0570210498268052,0.245852166244075,0.66875362412343,0.062719854831601,0.00172649080377537,0.000629993554708981,0.000816943057506347,-0.0015958643790673,0.722386394274609,3,61
210,6.96704590818363,149.746932983398,0.96558784712681,114.867851257324,0.945803331781399,101.412841796875,0.929646344919964,129.647338867188,1,72984,-0.00127926057193006,-0.000240014579954983,-0.000944733307256643,0.00229768744320755,-0.000700799146151502,103,0.811791479587555,0.949778946983814,0.903759728159597,0.924948673104707,0.339026868343353,0.0514536283679315,0.234544557711279,0.661579990297038,0.0738700783682615,0.00207745452083255,0.00102051652736676,0.0013867530550945,-0.000849979650775744,0.722386394274609,3,61
211,7.00038105606968,155.184143066406,1.000647690249,121.048622131348,0.996694800731516,108.518852233887,0.994786779924859,130.957366943359,1,70975,-0.00582162639831513,-7.31400438999026e-05,-0.00112646474285675,0.00220478298666219,-0.000782811052932187,103,0.963246524333954,0.818043912175649,0.532215568862276,0.899385414686688,0.332204580307007,0.0429195970347843,0.270560056357873,0.681665289264627,-0.0112075057302693,0.00206328649018686,0.00107301582566761,0.00188151398217781,-7.49419559005581e-05,0.722386394274609,3,61
212,7.03371620395573,154.856491088867,0.998534947361417,120.610748291016,0.99308941826329,108.006217956543,0.99008748766789,129.942459106445,1,71453,-0.00531747816286099,-0.000179137453661257,-0.00152120467748055,0.00172089476871664,-0.00115550699937931,103,0.949478030204773,0.811087941257423,0.524260702839629,0.904972389685394,0.337425827980042,0.0429986321495517,0.255258701524079,0.673759054963565,0.00165290633081526,0.00169680711397036,0.000795543012543091,0.00207843711083324,0.000533025074606642,0.722386394274609,3,61
213,7.06705135184177,154.324340820312,0.995103572695342,119.839492797852,0.986739025119301,107.067901611328,0.981485989620386,129.127426147461,1,71513,-0.00483618686013182,-0.0004439778230984,-0.00188890869745741,0.000952987635818066,-0.00159327359614414,103,0.928340256214142,0.813274043414018,0.51899654608253,0.901166893492616,0.341541767120361,0.0487549775694339,0.236404569798498,0.664219990284929,0.0215525890511362,0.00104709382428148,0.000252823438600738,0.0018062190038998,0.000791998413078737,0.722386394274609,3,61
214,7.10038649972782,153.233413696289,0.988069131641549,118.922927856445,0.979192177451418,106.233833312988,0.973840128098052,128.969818115234,1,71655,-0.00170418026707675,-0.000810349477606381,-0.00212181241153593,5.18836027500532e-05,-0.0019407793661246,103,0.909689009189606,0.809168934477706,0.50709650408206,0.901865277148467,0.344788819551468,0.0467074460051352,0.222245481822622,0.656231944196645,0.0355564628572163,0.00023417582483407,-0.000438641141734952,0.00103206361784196,0.000619959902387808,0.722386394274609,3,61
215,7.13372164761386,152.696151733398,0.984604796100545,118.053062438965,0.972029846119813,105.159019470215,0.963987364456885,128.315505981445,1,71581,-0.00109670542121554,-0.00126125292254696,-0.0022482804231761,-0.000820158025368178,-0.00214853314130993,103,0.891360700130463,0.809525805264898,0.504491415319708,0.904988874279357,0.345278710126877,0.0429604531202589,0.21015353236194,0.649902370058742,0.0438585457883869,-0.000589197308615764,-0.00112879824905133,-0.000104128402402983,8.59851347153521e-05,0.722386394274609,3,61
216,7.16705679549991,152.579162597656,0.983850434822701,117.639228820801,0.968622406957519,104.512115478516,0.958057228581175,127.311233520508,1,71350,-0.00253568294200018,-0.00174713361605691,-0.00233815361124231,-0.00151882753841085,-0.00223016239430223,103,0.877074837684631,0.809138051857043,0.500448493342677,0.899475568554284,0.343840360641479,0.0436185769754425,0.200462508759636,0.644209849228423,0.0485149131741111,-0.0012670031514185,-0.00166381858431624,-0.00131905001454646,-0.000597043800656759,0.722386394274609,3,61
217,7.20039194338596,152.482376098633,0.983226342793829,117.176910400391,0.964815751765648,103.962882995605,0.95302244244165,126.506881713867,1,70464,-0.000654755171549004,-0.00212534846913247,-0.00238781423039913,-0.00194189168927876,-0.00218772630784673,103,0.86548912525177,0.810333409022101,0.49987227520436,0.89165591071293,0.343156456947327,0.0509326044592919,0.190040304268846,0.638297807257645,0.0542416578616388,-0.00167406965773013,-0.0019207439953808,-0.00227404713669114,-0.00113928120820652,0.722386394274609,3,61
218,7.233727091272,152.255630493164,0.981764257416399,116.783172607422,0.961573778381782,103.479873657227,0.948594720488196,125.618431091309,1,70012,-0.000209275977349821,-0.00217550265212683,-0.00227242232216527,-0.00204402737297724,-0.0019633967271615,103,0.856357336044312,0.810299186806071,0.495772153345141,0.8852529492837,0.342833638191223,0.0505772124369365,0.182483002913786,0.63455341796514,0.0565392818190587,-0.0017453384661345,-0.00183725499482788,-0.00269070296615424,-0.00127652371703146,0.722386394274609,3,61
219,7.26706223915805,151.965698242188,0.979894736268583,116.488342285156,0.959146193134415,102.988807678223,0.944093143721322,124.962364196777,1,69943,-0.00304741763550853,-0.00170128957425177,-0.00180424565236181,-0.00183853870704397,-0.00145422017345187,103,0.845680356025696,0.811270129486391,0.493001444032998,0.884436407779267,0.341835230588913,0.0500366707974002,0.17464220865562,0.630596689307242,0.0628156856250376,-0.00149100853900714,-0.00142706029674963,-0.0024491357701561,-0.000868068383597481,0.722386394274609,3,61
220,7.30039738704409,151.614349365234,0.977629192668266,115.949073791504,0.954705943469794,102.150566101074,0.936409025965142,124.377624511719,1,69623,-0.00603335339353789,-0.000663290618909649,-0.000862494115723687,-0.00138954510563961,-0.000586883676359227,103,0.834225475788116,0.811149572219908,0.490958447639429,0.883462128998693,0.338623940944672,0.0476226731127945,0.165476925728567,0.626262040838677,0.065965073913709,-0.00099204300042965,-0.000775365366134949,-0.00163434569134432,4.74195510379521e-05,0.722386394274609,3,61
221,7.33373253493014,154.844482421875,0.998457513903002,120.927925109863,0.995701000953715,109.124183654785,1.00033582216579,128.144836425781,1,71373,0.00705110267047848,0.000747706471279207,0.000490723417763202,-0.000792195893545518,0.000602017256861725,103,0.956873118877411,0.798504569888707,0.473568436243397,0.903833246799296,0.347410589456558,0.0523509820557955,0.27710758970479,0.675964554509125,-0.0146813345889316,-0.000376556581303474,-1.4936919373018e-05,-0.000507632987057059,0.00125777095053157,0.722386394274609,3,61
222,7.36706768281619,154.288055419922,0.994869599678684,120.51921081543,0.992335713476055,108.676712036133,0.99623387267532,127.837631225586,1,72045,0.00660095888504808,0.00216038484970224,0.0019889121911679,-0.000156445592191125,0.00192563571738292,103,0.944063484668732,0.799338376477664,0.469470469845236,0.914717757294127,0.350339353084564,0.0477514537467307,0.266972031369283,0.671637720137096,-0.00554433357686224,0.000216155182159118,0.000710316376515134,0.000577347914743614,0.00244729442181485,0.722386394274609,3,61
223,7.40040283070223,153.669418334961,0.990880546686951,119.878471374512,0.987059968423017,108.05672454834,0.990550479017174,127.745903015137,1,71717,0.00896115397942948,0.00318131631367042,0.00325767570932132,0.00042051296476116,0.00309739588446959,103,0.92642742395401,0.799591914515852,0.467741260788934,0.91103912601626,0.352516621351242,0.0564659552845528,0.251976518817017,0.662885989809548,0.00715945614397218,0.000672999371849194,0.00128329641126851,0.00130167982239387,0.00330740629946736,0.722386394274609,3,61
224,7.43373797858828,153.008041381836,0.986615901424547,119.208381652832,0.981542557899359,107.20825958252,0.982772643978813,127.43384552002,1,72206,0.0075527646305098,0.00357455709090896,0.0039807519107318,0.000864044749428638,0.00383699646703518,103,0.909123480319977,0.81305339353147,0.507035426418857,0.916424464723128,0.353205025196075,0.0509702884847254,0.235506744591862,0.658837651547105,0.0189261950094619,0.000934358256257238,0.00164127825841045,0.00148240486803892,0.00364223718164275,0.722386394274609,3,61
225,7.46707312647432,152.491561889648,0.983285573978029,118.577392578125,0.976347095786651,106.460502624512,0.97591799410821,127.237258911133,1,71213,0.0078369675011653,0.00336117780627244,0.00404591492265246,0.00113535427692222,0.00399918080073469,103,0.895899057388306,0.851057157166997,0.616951961018353,0.907900608131367,0.352812945842743,0.0598824534339661,0.222361085756814,0.659077220382404,0.0267972997971159,0.00100310932446821,0.0017850561060183,0.00113337334670253,0.00343208301774064,0.722386394274609,3,61
226,7.50040827436037,152.09033203125,0.980698391272812,118.070358276367,0.972172257251057,105.877685546875,0.970575339702892,126.930374145508,1,71675,0.00849207751215209,0.00278912631364102,0.00359333401376342,0.00123028997031898,0.00364424438702828,103,0.881795644760132,0.813282176491106,0.503662364841298,0.912487746502183,0.354270040988922,0.0531006123566182,0.212263690268573,0.64706198656491,0.0309167090935772,0.000933423101863737,0.00176764707319968,0.000448904883485555,0.00283241305990949,0.722386394274609,3,61
227,7.53374342224642,151.913513183594,0.979558240172297,118.002868652344,0.971616558588956,105.643264770508,0.968426416410125,126.343147277832,1,71839,0.00487382125202879,0.00219919971365523,0.00294346993518457,0.00117297927212047,0.00301806997477713,103,0.879614055156708,0.798670174510595,0.453319227717535,0.914575615221072,0.358133792877197,0.0546410520821398,0.211013516335138,0.643097683625181,0.0498400381804026,0.000804207528321659,0.00166755360296891,-0.000274926408081056,0.00210885598835422,0.722386394274609,3,61
