frame_index,time_s,R_skin_raw,R_normalized,G_skin_raw,G_normalized,B_skin_raw,B_normalized,frame_luminance,face_detected,skin_pixel_count,BVP_detrended,BVP_butterworth,BVP_cheby1,BVP_cheby2,BVP_elliptic,gt_bpm,bisenet_conf,vote_mean,highconf_pct,roi_coverage,green_cv,hair_rej_frac,clust_agree,quality_score,BVP_ham_tight,BVP_ham_adapt,BVP_el_tight,f_p1_adapt,f_p2_adapt,N_ham_mid
1,0,154.805572509766,1.00475878709868,120.808502197266,0.997662490733946,108.385894775391,0.99586372974612,128.137176513672,1,67595,-0.00177255381279778,-0.000417347200128109,-0.000677169644457967,0.000304342213366676,-0.000756211412958232,NaN,0.969327032566071,0.766417634440417,0.370293660773726,0.882533423856277,0.357380002737045,0.0658032170461667,0.387306753458096,0.692548120993834,-2.09373267655914e-08,-8.77414816285664e-08,0.000236379221631466,0.817596055136158,3.22842153564043,61
2,0.0333351478860461,154.707946777344,1.0041251515589,120.797973632812,0.997575543593264,108.494079589844,0.996857745923654,128.090042114258,1,67876,-5.92333916998866e-06,0.000604832555211274,0.000120682126196083,0.00102560720089762,-2.11116404566486e-06,NaN,0.969479262828827,0.765376077946058,0.36920266368083,0.886202214330478,0.358217716217041,0.0610246500940046,0.387839589840297,0.693249005249437,0.000908825820846913,0.000959436203727519,0.00111976475209166,0.817596055136158,3.22842153564043,61
3,0.0666702957720922,154.728713989258,1.00425994023812,120.782730102539,0.997449659254798,108.488555908203,0.996806993616705,128.15657043457,1,67837,0.000446002444980997,0.00146253323427776,0.000816054425599449,0.00163254253035274,0.000671311373382992,NaN,0.96935760974884,0.765368948115827,0.36860415407521,0.885693022770002,0.358384817838669,0.0618863588886568,0.388121526600528,0.693135679958296,0.0016612307056768,0.00175832224076977,0.00184840403702251,0.817596055136158,3.22842153564043,61
4,0.100005443658138,154.70182800293,1.0040854379216,120.810287475586,0.997677233944758,108.487892150879,0.996800894927886,128.199645996094,1,67917,-0.000492085031093603,0.00203599774502188,0.00134753143362512,0.00205259111285709,0.00121481490071838,NaN,0.969216704368591,0.765463727785385,0.369583462167057,0.886737518278671,0.35820010304451,0.0610115939001462,0.388120794499168,0.693259225525035,0.00213208522180481,0.0022675147103883,0.00229919808223357,0.817596055136158,3.22842153564043,61
5,0.133340591544184,154.766845703125,1.00450743245661,120.802558898926,0.997613409703083,108.430603027344,0.996274514992971,128.173889160156,1,67949,-0.000966594445498459,0.00228084103024942,0.00167534012575535,0.00224071264022513,0.00157565101943875,NaN,0.968801259994507,0.764813806433256,0.367687530353648,0.881344280581605,0.358567982912064,0.0655278415502549,0.385789342006505,0.691836490038538,0.00225276978627823,0.00241499129439924,0.00239703228939525,0.817596055136158,3.22842153564043,61
6,0.16667573943023,154.854629516602,1.0050771894526,120.811309814453,0.997685676638128,108.33406829834,0.995387541319182,127.825561523438,1,67990,-0.00250952416057049,0.00221507093735477,0.00177245448757396,0.0021835227932459,0.00169896818267548,NaN,0.968847453594208,0.767995293425504,0.373187233416679,0.881876078187219,0.357567876577377,0.0650608973111794,0.383924106486248,0.692185999811114,0.00202472140122434,0.00219970541265368,0.00213135862679031,0.817596055136158,3.22842153564043,61
7,0.200010887316277,154.884002685547,1.00526783471894,120.768104553223,0.997328878335459,108.347885131836,0.995514492186425,127.928718566895,1,67669,-0.000857582984685523,0.00188799872140141,0.00162134854205334,0.00189933830403044,0.00154754967482467,NaN,0.968629002571106,0.767214923623323,0.373568399119242,0.877712492055463,0.35728394985199,0.0691077473831667,0.384666538592265,0.691476303504588,0.00151776243241208,0.0016903607262699,0.00156095259195009,0.817596055136158,3.22842153564043,61
8,0.233346035202323,154.848159790039,1.00503519797575,120.877639770508,0.998233443624426,108.274208068848,0.994837537727579,127.831382751465,1,67822,-0.00552560885154507,0.00135846530863247,0.00122592708004205,0.00142983254328453,0.00112700353687066,NaN,0.968298077583313,0.766314765120462,0.372607708413199,0.879697005071533,0.357265740633011,0.0675901786061714,0.383607089145115,0.691244461671956,0.000852440800165251,0.00100803404243099,0.000803729656280362,0.817596055136158,3.22842153564043,61
9,0.266681183088369,154.829544067383,1.00491437344332,120.796424865723,0.997562753542859,108.3740234375,0.995754654346103,127.973487854004,1,67521,-0.00146800165516159,0.000697054412819543,0.00063507185029933,0.000834843227857645,0.000511035854961141,NaN,0.967986226081848,0.765559356842069,0.372328608877238,0.87579283240593,0.357373476028442,0.0732453921683075,0.383584366345285,0.690106038411004,0.0001696533378395,0.000295983118985698,1.03260870544438e-05,0.817596055136158,3.22842153564043,61
10,0.300016330974415,154.804138183594,1.00474947766749,120.836807250977,0.997896239930998,108.35905456543,0.995617118398267,127.91185760498,1,67812,-0.00302700757247087,2.3809799000955e-06,-4.03376252024225e-05,0.000178339917177106,-0.000162979816492868,NaN,0.967932224273682,0.764515621620559,0.37064236418333,0.879567298338457,0.35678231716156,0.0685629791042453,0.384342004365009,0.690784504608855,-0.000405303731481007,-0.000316561145061618,-0.0006742061063551,0.817596055136158,3.22842153564043,61
11,0.333351478860461,154.846618652344,1.00502519528905,120.895561218262,0.998381442779109,108.257827758789,0.994687033303519,128.36506652832,1,67887,-0.00632833443507153,-0.000595747678328473,-0.000638966203327299,-0.000476039986310978,-0.000722808293162351,NaN,0.958645641803741,0.764044171441759,0.371971069571494,0.880540098836531,0.357733428478241,0.0692763661361661,0.429552049729698,0.69729643610344,-0.000794261740599481,-0.000746371517722302,-0.00114775556663395,0.817596055136158,3.22842153564043,61
12,0.366686626746507,154.810913085938,1.00479344987438,120.93766784668,0.998729168336664,108.251419067383,0.994628149411479,128.288360595703,1,67842,-0.00783496033678455,-0.000967585290932152,-0.00099784646096881,-0.00107270883920228,-0.00102056689263854,NaN,0.95948052406311,0.764231596945845,0.372718964653165,0.879956418537686,0.357616245746613,0.0685629791042453,0.429719053093954,0.697690184367058,-0.000983471927832918,-0.00097425857077014,-0.00137740353112664,0.817596055136158,3.22842153564043,61
13,0.400021774632553,154.860961914062,1.00511828960093,120.907402038574,0.99847922680979,108.231658935547,0.994446590744356,128.334701538086,1,67538,-0.00705751324469728,-0.00104202805060203,-0.00102223354557288,-0.00156568677542659,-0.000990673791708302,NaN,0.960390746593475,0.763555331813201,0.371642630815245,0.87601333385216,0.358001857995987,0.0734658936145375,0.428529124344813,0.696760034901646,-0.00102025721674175,-0.00104254127902302,-0.00140496183830468,0.817596055136158,3.22842153564043,61
14,0.433356922518599,154.887329101562,1.00528942467638,120.975555419922,0.999042052032771,108.13712310791,0.993577983236893,128.143081665039,1,68120,-0.0105913171525139,-0.000856031481665384,-0.000739719536475889,-0.0019198228594636,-0.000685169340071041,NaN,0.960080087184906,0.764709336465062,0.37435408103347,0.883562265717213,0.356862753629684,0.0653073401040248,0.428669994128009,0.698246713498197,-0.00098899756394572,-0.00103174577553591,-0.00132505340174182,0.817596055136158,3.22842153564043,61
15,0.466692070404645,154.867980957031,1.00516384639185,120.877815246582,0.998234892743438,108.254219055176,0.994653876064311,128.421417236328,1,68087,-0.00574844375003458,-0.000553755162148749,-0.000301857798350602,-0.00210729731015123,-0.000256907159866764,NaN,0.961140275001526,0.76622066865432,0.376841394098727,0.880860587870006,0.357615739107132,0.0691109501138481,0.42344353547667,0.697160157558364,-0.000973750663850268,-0.00102363735303086,-0.00124378696161675,0.817596055136158,3.22842153564043,61
16,0.500027218290691,154.867446899414,1.00516038011428,120.909561157227,0.998497057274147,108.222984313965,0.994366887190487,128.250930786133,1,68475,-0.00722536592157269,-0.000321824211880534,7.897076904819e-05,-0.0021109385272184,0.000100518247998628,NaN,0.961069524288177,0.765603018133139,0.376765242789339,0.885880252535707,0.358191251754761,0.0640654108880149,0.423088718510405,0.697755262658671,-0.0010205193372753,-0.00106371188765918,-0.00123261345447578,0.817596055136158,3.22842153564043,61
17,0.533362366176737,154.837173461914,1.00496389169431,120.921951293945,0.998599377677385,108.240867614746,0.994531201289228,128.260299682617,1,67772,-0.00740805262688776,-0.000289106378024727,0.000233191230292657,-0.00192107909992708,0.000244970519467869,NaN,0.961310505867004,0.765217690688387,0.376040252611698,0.876785344649141,0.357766598463058,0.0733414406955082,0.423198371008676,0.696276208294882,-0.00111349354784009,-0.00113725414210825,-0.00129321408425968,0.817596055136158,3.22842153564043,61
18,0.566697514062784,154.801681518555,1.00473353279067,120.979362487793,0.999073491614801,108.21898651123,0.994330154857834,128.179718017578,1,67926,-0.00963463852868257,-0.000446704340788118,0.000126966236871813,-0.0015419131423283,0.000156249643114944,NaN,0.961717069149017,0.765730353620116,0.377543208786032,0.878777685779342,0.357878625392914,0.0707281101221279,0.422489179401113,0.69675667627196,-0.001175833240654,-0.0011698602220195,-0.00135052631429997,0.817596055136158,3.22842153564043,61
19,0.60003266194883,154.85302734375,1.00506679061989,120.931488037109,0.998678134145394,108.215461730957,0.994297768717212,128.237487792969,1,67845,-0.00804929885004152,-0.000637086770390667,-0.000106882674846426,-0.00099273248401646,-3.9227807628494e-05,NaN,0.961426258087158,0.765996020340482,0.377374898666077,0.877729766093976,0.35803085565567,0.0722417718898779,0.422772496130887,0.696551584313683,-0.00109700971628622,-0.00105440877532509,-0.00127968269857876,0.817596055136158,3.22842153564043,61
20,0.633367809834876,154.83381652832,1.00494210366388,121.011520385742,0.999339058424928,108.154640197754,0.993738932541803,128.012359619141,1,68157,-0.0115490864281421,-0.000624737443749209,-0.000222674453001881,-0.000314157730316974,-0.000119077903644522,NaN,0.961496889591217,0.76586899853769,0.377540091259885,0.881766197474643,0.358437895774841,0.0679336576278203,0.421820209222824,0.697042678729456,-0.00077862409556446,-0.000696534374639622,-0.000957777872585282,0.817596055136158,3.22842153564043,61
21,0.666702957720922,154.887832641602,1.00529269288094,120.955589294434,0.998877167491347,108.156593322754,0.993756878108901,128.278213500977,1,67467,-0.00961863342618646,-0.00021686430174998,1.9600463732323e-05,0.000433858792760978,0.000136183914924343,NaN,0.960705995559692,0.766038705342365,0.377028769620703,0.872839474228938,0.359243214130402,0.076743945352929,0.367201743074392,0.684545557316806,-0.00018256229688552,-6.24892536049789e-05,-0.000322911667211046,0.817596055136158,3.22842153564043,61
22,0.700038105606968,154.900268554688,1.00537340763007,120.986434936523,0.999131897411476,108.113273620605,0.993358851038659,128.056228637695,1,67987,-0.0112218038136709,0.000624619075289162,0.000725404694340031,0.00117135226957677,0.000825792025366951,NaN,0.959972620010376,0.766685787969269,0.378528248047421,0.879566859863382,0.358942806720734,0.0694473193955703,0.367452601232589,0.685709261739674,0.000637211082426213,0.000789314629894121,0.000582262983727613,0.817596055136158,3.22842153564043,61
23,0.733373253493014,154.860504150391,1.00511531850587,120.9130859375,0.998526165664723,108.226417541504,0.994398432132652,128.287872314453,1,67700,-0.007258119139613,0.00173608775193766,0.001788886977245,0.00180996689552507,0.00185880810101757,NaN,0.960155069828033,0.766356474643033,0.376779911373708,0.875853860484372,0.35916593670845,0.0737166218174291,0.367799113737075,0.685075225642241,0.00153350116488147,0.00170752677711009,0.00160238123852334,0.817596055136158,3.22842153564043,61
24,0.76670840137906,154.893814086914,1.00533151518973,120.902526855469,0.998438966503344,108.203674316406,0.994189464415781,128.191513061523,1,67832,-0.00718848971191016,0.00279551421016993,0.00290800664560846,0.002261605846898,0.00295601266003097,NaN,0.959438562393188,0.76628041828832,0.37644474584267,0.877561581453115,0.35923770070076,0.0722805837300766,0.367584620827928,0.685067755024734,0.00229917981363185,0.00248142384605603,0.00250353817579376,0.817596055136158,3.22842153564043,61
25,0.800043549265106,154.848297119141,1.00503608930427,120.95581817627,0.998879057646579,108.195892333984,0.994117962546875,128.289932250977,1,67398,-0.00909264320167419,0.00343849397486306,0.00368927417029569,0.00245522522783009,0.00374042220070678,NaN,0.95992910861969,0.766006904260265,0.375782664174011,0.871946801904368,0.3592649102211,0.0792020285655144,0.367088044155613,0.683928942267616,0.00272625652834005,0.00290047592921096,0.00304203492359979,0.817596055136158,3.22842153564043,61
26,0.833378697151152,154.854644775391,1.0050772884891,120.928504943848,0.998653499122201,108.216842651367,0.994310456793949,128.263610839844,1,67390,-0.00788772550851746,0.00339709375705635,0.00379912864743718,0.00235004550296872,0.0038763098360762,NaN,0.959518730640411,0.765558688232675,0.37367561952812,0.871843303663838,0.359501451253891,0.0790985303249845,0.369446505416234,0.684224956537887,0.00267162826220494,0.00282048792638037,0.00304390578429964,0.817596055136158,3.22842153564043,61
27,0.866713845037198,154.869689941406,1.00517493848007,120.931221008301,0.99867592896429,108.199096679688,0.994147404492895,128.289459228516,1,67109,-0.00820393376015305,0.00260408992985831,0.00309849111123865,0.00194562514444168,0.00320493420736923,NaN,0.959794402122498,0.765456198125438,0.373467046148803,0.868207927965225,0.359110176563263,0.0831478989857172,0.369384136255942,0.683613003569186,0.00210681001099809,0.00221357918969066,0.00246683993507992,0.817596055136158,3.22842153564043,61
28,0.900048992923244,154.957183837891,1.00574281378252,120.925010681152,0.998624642752322,108.117813110352,0.993400560462187,128.115676879883,1,67393,-0.00904115187094479,0.00122146943898447,0.0017047917755416,0.00128734936217086,0.00182125540475105,NaN,0.960279166698456,0.765994490031111,0.375261525677741,0.871882115504036,0.359098792076111,0.0793055268060443,0.36845072930423,0.684269951252715,0.00113356510474421,0.00118391000293024,0.00142281184787999,0.817596055136158,3.22842153564043,61
29,0.933384140809291,155.035247802734,1.00624948452674,121.072761535645,0.999844800959896,107.891998291016,0.991325744466232,127.745658874512,1,67112,-0.0169796349514691,-0.000416486349671346,-4.31144352186888e-05,0.000460297498250471,5.26754612303013e-05,NaN,0.960878849029541,0.767438510748202,0.380170461318393,0.868246739805423,0.35967481136322,0.0847779962740633,0.365389200143044,0.683220775031784,-4.11810731924863e-05,-5.7594532563508e-05,0.000151350954799726,0.817596055136158,3.22842153564043,61
30,0.966719288695337,155.036727905273,1.00625909106743,121.011413574219,0.999338176352486,107.951858520508,0.991875748057835,127.796730041504,1,67647,-0.0141146067386977,-0.00191943305335415,-0.00170155228145428,-0.00041903073130089,-0.00164610199165849,NaN,0.960997521877289,0.767572841367688,0.380977722589324,0.875168184640861,0.359211176633835,0.0753725936659077,0.36641684036247,0.684987701828809,-0.0011634481351486,-0.00125179431690571,-0.0010504361861508,0.817596055136158,3.22842153564043,61
31,1.00005443658138,155.011917114258,1.00609805771519,121.051544189453,0.999669583569869,107.936531066895,0.991734917416039,127.791404724121,1,67462,-0.0156698074551812,-0.0029660618166599,-0.00287287940575017,-0.00122523384614114,-0.00285455362600255,NaN,0.9603231549263,0.764761396539286,0.376093208028223,0.872774787828607,0.358896642923355,0.0767827571931277,0.392398683703418,0.689227563629216,-0.002003943550884,-0.00216373775956344,-0.00191728811623807,0.817596055136158,3.22842153564043,61
32,1.03338958446743,155.014022827148,1.00611172475246,121.02645111084,0.999462359551243,107.959510803223,0.991946058228926,127.814910888672,1,67514,-0.0145138996483802,-0.00338984080149536,-0.00333311399873388,-0.00184017648721402,-0.00332680951862186,103,0.960077702999115,0.764562411746699,0.373878010486714,0.873447526392051,0.359825491905212,0.0757995239080936,0.393236958260509,0.689451375925925,-0.0024193376533705,-0.00264452430158088,-0.00229170785769023,0.817596055136158,3.22842153564043,61
33,1.06672473235347,154.973892211914,1.00585125875221,121.079231262207,0.999898229347794,107.946884155273,0.991830042941633,127.997451782227,1,66946,-0.0164633411300575,-0.00320350817410372,-0.003092011720746,-0.00217688263151165,-0.00307104622354139,103,0.960738599300385,0.763715034007509,0.373614555014489,0.866099151314428,0.358980655670166,0.0843381287518112,0.391240701460879,0.687681696318484,-0.00238330083751002,-0.00266294314719206,-0.00216251196598044,0.817596055136158,3.22842153564043,61
34,1.10005988023952,155.051010131836,1.0063517892333,121.044708251953,0.9996131309336,107.904296875,0.991438745459052,127.816825866699,1,67645,-0.0158374815573779,-0.00256924004221637,-0.00236891740667191,-0.00219186632050206,-0.00232445765451664,103,0.961596131324768,0.764205287407298,0.375179244585705,0.875142310080729,0.358142763376236,0.0729403850134548,0.39185453470323,0.689940535651145,-0.0019788577662029,-0.00229824216240572,-0.00165433133221943,0.817596055136158,3.22842153564043,61
35,1.13339502812557,154.996536254883,1.00599822892117,121.084587097168,0.999942458980228,107.918869018555,0.991572636213572,127.856025695801,1,67407,-0.0169964834657515,-0.00173426480580356,-0.00149756185732743,-0.00189481230555408,-0.00144725683622276,103,0.9611496925354,0.763659560579762,0.375435785600902,0.872063237424964,0.357921987771988,0.0764851997516042,0.392629845565001,0.689307672402546,-0.00135784215953728,-0.00169979881061707,-0.000973018456008578,0.817596055136158,3.22842153564043,61
36,1.16673017601161,154.969955444336,1.00582570733469,121.035224914551,0.999534815501812,107.994819641113,0.992270480434118,127.904838562012,1,68101,-0.0143296151402827,-0.000950455536513495,-0.000795992255354697,-0.00134475475235784,-0.000771153563574901,103,0.963684678077698,0.765402368051375,0.377982702162964,0.882183014663972,0.357406705617905,0.0655344836520027,0.386984038413533,0.690912933428086,-0.000684698485573256,-0.00103099376623881,-0.000329227105998455,0.817596055136158,3.22842153564043,61
37,1.20006532389766,154.940048217773,1.00563159579078,121.017601013184,0.999389273548931,108.04231262207,0.992706852134058,128.070388793945,1,67260,-0.0131095768434107,-0.000395062633297544,-0.000449224407466803,-0.000641183136247623,-0.000472681765227252,103,0.964077472686768,0.765095648726336,0.377356526910497,0.871288667806622,0.357255727052689,0.0787994196590497,0.386723163841808,0.688775223539873,-8.6230765663634e-05,-0.000418902061998984,0.000130912591864186,0.817596055136158,3.22842153564043,61
38,1.23340047178371,154.871276855469,1.00518523827628,121.017051696777,0.999384737176373,108.111679077148,0.99334420016552,127.960266113281,1,67701,-0.0121850516274803,-0.000114870473246261,-0.000449056759623074,9.53415184987866e-05,-0.000517364846807696,103,0.963357031345367,0.764858224644638,0.38055567864581,0.87700139903622,0.35684609413147,0.0718819627959998,0.386788969143735,0.689667582546656,0.000375285974703757,7.27578352535234e-05,0.000363648699165563,0.817596055136158,3.22842153564043,61
39,1.26673561966975,154.88835144043,1.00529606012201,121.017349243164,0.999387194378175,108.094284057617,0.993184372458554,127.985916137695,1,67594,-0.0124148308685897,-1.91164298626148e-05,-0.000616331522693403,0.000743762603836533,-0.000701466272176935,103,0.963295519351959,0.764412028681047,0.381306033079859,0.875615316855796,0.356623858213425,0.0733975853671175,0.38661715536882,0.689286102989224,0.000698924157203222,0.000440600292452976,0.000422160153156992,0.817596055136158,3.22842153564043,61
40,1.3000707675558,154.868209838867,1.00516533193938,121.020538330078,0.999413530541078,108.11124420166,0.993340204472846,127.725158691406,1,67922,-0.0122970689863721,6.59976333023447e-05,-0.000698896498127542,0.00120447893533894,-0.000766252876592313,103,0.962597966194153,0.763836950227221,0.383130649863078,0.879864241670553,0.356205195188522,0.0680993833877403,0.386575778098407,0.689836135871625,0.000917895915877189,0.000714579154732474,0.000413362278684337,0.817596055136158,3.22842153564043,61
41,1.33340591544184,154.920196533203,1.00550274930168,121.082870483398,0.999928282815986,107.996940612793,0.992289968198388,128.221939086914,1,66744,-0.0158894106953856,0.000298104175043807,-0.000504331893854192,0.00141493114489251,-0.000536466770307371,103,0.957467138767242,0.767020256502457,0.385113268608414,0.864604383646821,0.356619983911514,0.0787216954246334,0.371479084262256,0.684471181576812,0.0010637587889009,0.000922446192106923,0.000438319065592425,0.817596055136158,3.22842153564043,61
42,1.36674106332789,154.863754272461,1.00513641328079,121.006423950195,0.999296970968424,108.129844665527,0.993511107959505,128.248489379883,1,67768,-0.0115644044247813,0.000722065485025556,-6.36338152311582e-06,0.00136137677997057,-1.30694243555355e-05,103,0.963671565055847,0.770742336599378,0.389977570534766,0.877130764551326,0.354787111282349,0.0687539638368646,0.360538897414709,0.686173503852881,0.00113986459227601,0.00106352370606913,0.000540983694012205,0.817596055136158,3.22842153564043,61
43,1.40007621121394,154.85725402832,1.00509422373094,120.973129272461,0.99902201638731,108.169616699219,0.993876538589511,128.353668212891,1,67546,-0.00991238026310254,0.00123029303113534,0.000628813620342468,0.00107662024818369,0.000616957049657495,103,0.964068830013275,0.770995568452117,0.390903976549315,0.874257387297602,0.354854106903076,0.0717826587799796,0.359769638468599,0.685685023482665,0.00111645436929545,0.00110409036172091,0.000686433114515733,0.817596055136158,3.22842153564043,61
44,1.43341135909998,154.856414794922,1.00508877672333,120.992141723633,0.999179025281933,108.151435852051,0.993709490595783,128.319427490234,1,67574,-0.0107876260538728,0.00160721882020078,0.00111453620362751,0.000634066875690103,0.00106752054323086,103,0.963586390018463,0.768303390850524,0.384659780388907,0.874619795239513,0.355112314224243,0.0709931271922445,0.359798147216385,0.685158004767239,0.000949236443664199,0.000996334752437584,0.000779164135413679,0.817596055136158,3.22842153564043,61
45,1.46674650698603,154.837768554688,1.00496775411789,120.97119140625,0.99900601307301,108.191040039062,0.994073379028616,128.376861572266,1,67332,-0.00955668319830871,0.00163869689567178,0.00118395648779743,0.000131265904527656,0.00109183998678528,103,0.964328706264496,0.768470662785402,0.38475019307313,0.871487555170138,0.355722337961197,0.0747595811599643,0.35861106160518,0.684536988458646,0.000612012589858785,0.000711245035529884,0.000711137749218376,0.817596055136158,3.22842153564043,61
46,1.50008165487207,154.803466796875,1.0047451200614,120.97615814209,0.99904702944155,108.220352172852,0.994342702734828,128.472991943359,1,67700,-0.00933927374179755,0.00123079543345508,0.000732146040275886,-0.000330035163607551,0.000611389657969277,103,0.96368932723999,0.769158050221566,0.385805022156573,0.876250630978113,0.355627447366714,0.0692975757497314,0.360162481536189,0.685698826041591,0.000127086571644033,0.000269150123353514,0.000418172264029291,0.817596055136158,3.22842153564043,61
47,1.53341680275812,154.829895019531,1.00491665128286,120.971649169922,0.999009793383475,108.19847869873,0.994141726403306,128.377349853516,1,67544,-0.00946353497724517,0.000476688285523089,-0.000111185492779803,-0.000662810732949737,-0.000227297825569806,103,0.964112758636475,0.768792688222986,0.385348809664811,0.874231501016037,0.354901105165482,0.0715367391051112,0.359498993248845,0.685240647696667,-0.000422451248462865,-0.000247978971087141,-7.81421709711412e-05,0.817596055136158,3.22842153564043,61
48,1.56675195064417,154.861038208008,1.00511878478344,121.018623352051,0.999397716242301,108.120384216309,0.993424184118874,128.311935424805,1,67594,-0.0120648636182569,-0.000364300575247447,-0.00101876383254419,-0.0008121539673628,-0.00110059130706037,103,0.963493764400482,0.768865086644771,0.384501582980738,0.874878658055164,0.354302823543549,0.0714202508380684,0.359647305973903,0.685148679489764,-0.000907054173842931,-0.000710977907810425,-0.000662648145997487,0.817596055136158,3.22842153564043,61
49,1.60008709853021,154.925369262695,1.00553632267586,120.98974609375,0.999159241657169,108.084899902344,0.993098149616638,128.217102050781,1,67411,-0.0115387943415284,-0.000968826428692216,-0.00160076016888389,-0.000763594648999005,-0.00163919307451129,103,0.963204145431519,0.76888539456963,0.384150954591981,0.872510063291958,0.355190634727478,0.0750961028203104,0.358591327824836,0.684281004385523,-0.00118877103643017,-0.000981731526221232,-0.0011589897508282,0.817596055136158,3.22842153564043,61
50,1.63342224641626,155.015090942383,1.0061186573076,120.937957763672,0.998731562533292,108.046913146973,0.992749122356558,128.133636474609,1,67828,-0.0102674882994006,-0.00108692995437211,-0.00157754598444269,-0.000544897450004486,-0.00158922022778081,103,0.961919844150543,0.77051266930078,0.387922391932535,0.877907352998279,0.354857891798019,0.069763528817903,0.359851388806982,0.685390608048324,-0.00116961676372505,-0.000961786992119937,-0.00139128159952168,0.817596055136158,3.22842153564043,61
51,1.6667573943023,155.11491394043,1.00676655410367,120.868934631348,0.998161554720428,108.016166687012,0.992466619874509,128.145706176758,1,67716,-0.0083165246327388,-0.000652543790559191,-0.000909867295516094,-0.000216994019694592,-0.000925742349921907,103,0.965467572212219,0.770251245397444,0.386112587866974,0.876457721230634,0.354879349470139,0.0702812544492046,0.247873471557682,0.663746835732207,-0.000831554711058727,-0.000632513273060082,-0.0012513451819127,0.817596055136158,3.22842153564043,61
52,1.70009254218835,155.204879760742,1.00735047331944,120.878288269043,0.998238799064251,107.916847229004,0.991554059747631,128.166397094727,1,67607,-0.00991602954409909,0.000181572593220032,0.000175348246578429,0.000139538619501368,0.000129250276658394,103,0.965351164340973,0.769836456777158,0.384693892644253,0.875046918885337,0.354828923940659,0.0710966723185048,0.248983093466653,0.663726233563045,-0.000251619300023762,-7.02759225751313e-05,-0.000745157300275142,0.817596055136158,3.22842153564043,61
53,1.7334276900744,155.128372192383,1.00685390429843,120.844169616699,0.997957039924301,108.027481079102,0.992570577983908,128.240097045898,1,67471,-0.00731689815587644,0.00109969974721702,0.00127705877686605,0.000444322056297638,0.00119769196346466,103,0.965871632099152,0.769120560438312,0.383172029464511,0.873286651738911,0.354722499847412,0.0732840631107545,0.248343732863008,0.663235316587331,0.000415390108389944,0.00057090806023739,-4.81049984845001e-07,0.817596055136158,3.22842153564043,61
54,1.76676283796044,155.081298828125,1.00654837668977,120.805480957031,0.997637540684881,108.113220214844,0.993358360339558,128.280685424805,1,67794,-0.0048856393751478,0.00174773826283883,0.00198878251097812,0.000633259038229384,0.00189898814369921,103,0.965142905712128,0.770417244397243,0.388190695341771,0.877467286211672,0.356296330690384,0.0697505856771204,0.2483553116795,0.663880143935041,0.000982173720856204,0.00110469351645354,0.000768888307576544,0.817596055136158,3.22842153564043,61
55,1.80009798584649,155.139617919922,1.0069268942004,120.74698638916,0.997154480012699,108.113380432129,0.993359832436859,128.283264160156,1,67461,-0.00289173021226058,0.00187532767929585,0.00206716372138298,0.000673444993227265,0.00200325500826439,103,0.96473902463913,0.768834338852572,0.384725989831162,0.873157220331086,0.357455432415009,0.0749666714124849,0.248410192555699,0.662638995015439,0.00128721594003892,0.00137083517923736,0.00133205116298196,0.817596055136158,3.22842153564043,61
56,1.83343313373253,155.203002929688,1.0073382918297,120.753471374512,0.997208034410946,108.043502807617,0.992717787714008,128.011627197266,1,67461,-0.00401208384706725,0.00143362037388017,0.001524416988458,0.000568034281372039,0.00151337548046397,103,0.964001059532166,0.768898573496786,0.38684573309023,0.873157220331086,0.359391659498215,0.0764551326024773,0.246794444197388,0.66190604720548,0.00124611459013923,0.00128661694341207,0.00151884491787815,0.817596055136158,3.22842153564043,61
57,1.86676828161858,155.255447387695,1.00767868028706,120.805213928223,0.997635335503777,107.939338684082,0.991760714168743,127.642593383789,1,66932,-0.00711337381654759,0.000584082182344538,0.000605713535226407,0.000353797340775101,0.000647230064963977,103,0.964823067188263,0.767042172154824,0.383314408653559,0.866265450074419,0.361329138278961,0.0859121206238271,0.243411223331142,0.659550506594447,0.000878316254063711,0.000873537628678433,0.00127857891689637,0.817596055136158,3.22842153564043,61
58,1.90010342950463,155.254867553711,1.00767491689998,120.775535583496,0.997390245375332,107.969573974609,0.992038519959403,127.352554321289,1,67463,-0.00570779780918645,-0.000383310555208525,-0.000331763245646798,9.10047958542166e-05,-0.000266001263900637,103,0.963535845279694,0.766400347844992,0.384610823710775,0.873137902025497,0.362576991319656,0.0766064841778295,0.243170330403332,0.660541059501135,0.000300305011491091,0.000250441343641289,0.000698018385827131,0.817596055136158,3.22842153564043,61
59,1.93343857739067,155.217407226562,1.00743178228758,120.801910400391,0.997608054263258,107.980697631836,0.992140725572015,127.206321716309,1,67327,-0.00645269194379433,-0.00117792007134121,-0.000975477744314193,-0.000153894178608462,-0.000925226245475253,103,0.963545680046082,0.765289804486561,0.384585678850981,0.871377726007895,0.364373743534088,0.0783148903125607,0.245161673622767,0.660446333183376,-0.00031222398483549,-0.000404536411995883,-2.76809764423183e-05,0.817596055136158,3.22842153564043,61
60,1.96677372527672,155.222625732422,1.00746565277126,120.794570922852,0.997547443285478,107.982795715332,0.992160003036672,126.862648010254,1,67847,-0.00617040532431973,-0.00161769477659489,-0.00117496583184611,-0.000323899535134339,-0.00116596666465083,103,0.962799787521362,0.762902805822905,0.384895426474273,0.878107810781078,0.365856111049652,0.0712353588300007,0.244594455171194,0.66080174166636,-0.000780235199860929,-0.000910000025122352,-0.000660333116136172,0.817596055136158,3.22842153564043,61
61,2.00010887316277,155.204574584961,1.0073484925894,120.744743347168,0.997135956491424,108.050674438477,0.992783681593196,127.499992370605,1,66963,-0.00359246095023885,-0.00167270189662317,-0.000971361723001852,-0.000386536168225582,-0.000999000801782462,103,0.960360765457153,0.769101344523593,0.390170691277272,0.872618520159504,0.368492931127548,0.0784748103938075,0.270731598046683,0.665500810215334,-0.000976871728261594,-0.00113701683160547,-0.000999536370406649,0.817596055136158,3.22842153564043,61
62,2.03344402104881,155.191329956055,1.00726252890567,120.773368835449,0.9973723519058,108.035308837891,0.992642500452043,127.244750976562,1,67019,-0.00475742086412306,-0.00143657549749374,-0.000538845830144348,-0.000341819709476087,-0.000571788500951412,103,0.962126851081848,0.768200062668795,0.391366627374327,0.87334827595194,0.369495004415512,0.0743047772941698,0.272519733209985,0.666786907579151,-0.00086498810375003,-0.00104675582202857,-0.000950120999367646,0.817596055136158,3.22842153564043,61
63,2.06677916893486,155.017364501953,1.0061334137464,120.783363342285,0.997454888684274,108.199287414551,0.994149156989682,127.189338684082,1,67282,-0.00296413990828065,-0.00105672802890335,-8.09915692004093e-05,-0.000219774232199917,-8.15018474732301e-05,103,0.96492725610733,0.768769259732668,0.391768972384888,0.87750736886037,0.36955851316452,0.0704150037822469,0.264617579739009,0.666642781316008,-0.000505621706714518,-0.000698984537754287,-0.000552674021545212,0.817596055136158,3.22842153564043,61
64,2.1001143168209,154.9921875,1.0059700035181,120.783546447754,0.99745640080846,108.224258422852,0.994378593869024,126.947944641113,1,67713,-0.00264062348489458,-0.000667687523983862,0.000259500152761661,-7.31487045666488e-05,0.0003097393880187,103,0.963316679000854,0.769374664638499,0.397264926971187,0.883128570310666,0.369406491518021,0.0668283903278817,0.265104189741999,0.667032398173852,-3.5965522909082e-05,-0.000230050736241589,3.18816439566217e-05,0.817596055136158,3.22842153564043,61
65,2.13344946470695,154.913558959961,1.00545966842331,120.788612365723,0.997498236244266,108.297813415527,0.995054426729927,127.193840026855,1,67656,-0.00185273954322296,-0.000358427094445886,0.000436518681372991,3.95370840793232e-05,0.000525227580132667,103,0.956858992576599,0.769771589610185,0.396091994797209,0.880685220379579,0.370511889457703,0.0702012444351878,0.256769540026014,0.663290774961759,0.000375200677028791,0.000191704287195374,0.000579025297380232,0.817596055136158,3.22842153564043,61
66,2.166784612593,154.963333129883,1.00578272549283,120.825241088867,0.997800724086596,108.21142578125,0.994260685885201,126.957656860352,1,68113,-0.00421043473697003,-0.000176204334927722,0.000477415181412182,6.94555891283098e-05,0.000569338956386739,103,0.954215586185455,0.769544727144598,0.400716456476737,0.886634037124782,0.369014292955399,0.0645778553018666,0.256338731226051,0.663398131372195,0.000580315162634295,0.000418711718568445,0.000879091170224558,0.817596055136158,3.22842153564043,61
67,2.20011976047904,154.931396484375,1.00557544209415,120.756874084473,0.997236134718731,108.311767578125,0.995182639394857,127.049713134766,1,68402,-0.000581862166247782,-0.000144981808163776,0.000430320101799645,-5.62890178008573e-06,0.00049194985513924,103,0.939582467079163,0.772891630849001,0.403789362884126,0.886438152011923,0.368908315896988,0.0613231387286982,0.251381538551504,0.6599385484533,0.00049820413938258,0.000369316343125074,0.000809385838691007,0.817596055136158,3.22842153564043,61
68,2.23345490836509,154.861968994141,1.00512482601006,120.798728942871,0.99758178110553,108.339309692383,0.995435699930886,126.738395690918,1,68685,-0.0016397985452965,-0.000271384473845066,0.000322699825387224,-0.000175952199726543,0.000342766652851838,103,0.936016321182251,0.771075683676688,0.406566208051248,0.890105617831919,0.370043039321899,0.0620099786172488,0.250229307709107,0.658343481993962,0.000138775458262034,5.23427311137283e-05,0.00037633213796787,0.817596055136158,3.22842153564043,61
69,2.26679005625113,154.940078735352,1.00563179386378,120.718299865723,0.996917580556927,108.341613769531,0.995456870092072,126.971405029297,1,68245,0.00112658562961798,-0.000528456355945055,0.000157039391287792,-0.000396749504120525,0.000153763550374114,103,0.917801558971405,0.775539111534422,0.410623488900286,0.881558891156638,0.369637310504913,0.0694706383858217,0.244691918821892,0.652381293672383,-0.00039908387953005,-0.000435056435737075,-0.000285569894755136,0.817596055136158,3.22842153564043,61
70,2.30012520413718,154.863525390625,1.00513492773326,120.756317138672,0.997231535341,108.380165100098,0.995811084742641,126.600685119629,1,69149,0.000341980789531293,-0.000833450173474288,-5.97954903094177e-05,-0.000601020937382791,-5.3772349299167e-05,103,0.915027558803558,0.774014567576296,0.414872232425632,0.893236365515282,0.370044767856598,0.0593949414834526,0.244269620674196,0.652910536713636,-0.000955105319128641,-0.000935087625462248,-0.000958137972834951,0.817596055136158,3.22842153564043,61
71,2.33346035202323,154.836532592773,1.00495973216123,120.818130493164,0.997742003264048,108.345344543457,0.995491148929224,127.635581970215,1,68500,-0.002202089452923,-0.00104819276937857,-0.000280789320218604,-0.000713968734000986,-0.000240534736206514,103,0.957817077636719,0.779143552311436,0.419343065693431,0.88622661526121,0.368043631315231,0.0630191217947059,0.347766423357664,0.684753205055847,-0.00135246124920794,-0.00127398215438488,-0.00141072758729813,0.817596055136158,3.22842153564043,61
72,2.36679549990927,154.814163208008,1.0048145446493,120.843925476074,0.99795502375872,108.341888427734,0.995459393687445,127.80525970459,1,68487,-0.00311678638290713,-0.00101719880449738,-0.000407600396185566,-0.000673921854365662,-0.000332749295764178,103,0.961399614810944,0.779529935121507,0.423306612933841,0.886058426268533,0.365275204181671,0.060056408000621,0.346255493743338,0.685897964195606,-0.00144739724854842,-0.00131148408748578,-0.00147477952516624,0.817596055136158,3.22842153564043,61
73,2.40013064779532,154.803192138672,1.00474333740437,120.738327026367,0.997082969139747,108.458473205566,0.996530589823474,128.124786376953,1,68405,0.00198629139282869,-0.000630231244897112,-0.000318322298339304,-0.000449231754646347,-0.000230748984429479,103,0.958368718624115,0.781122237653193,0.42531978656531,0.881076277080811,0.364034384489059,0.0670676730467039,0.334200716321906,0.681925942763576,-0.00117021429684682,-0.000981539997748186,-0.00109872350405003,0.817596055136158,3.22842153564043,61
74,2.43346579568136,154.738006591797,1.00432025346784,120.814895629883,0.9977152890701,108.447113037109,0.996426211114846,127.879112243652,1,68813,-0.000754340255857355,0.000123313829400416,7.61079368653335e-05,-5.22305921564826e-05,0.000147281582819909,103,0.955720126628876,0.779910772673768,0.430049554589976,0.886331435637188,0.361618608236313,0.0628815786084134,0.332989406071527,0.681449014828932,-0.000546751391296589,-0.000313447581982673,-0.00036363196432686,0.817596055136158,3.22842153564043,61
75,2.46680094356741,154.829284667969,1.00491268982278,120.711532592773,0.996861694967228,108.459159851074,0.996536898811907,128.255950927734,1,68407,0.0029168554500944,0.00113643042327223,0.000774648669423615,0.00046234845567404,0.000814045384946182,103,0.944615066051483,0.785314368412589,0.434253804435219,0.880568964407543,0.360431551933289,0.0660487867670722,0.322657038022425,0.677180241917142,0.000305289933871719,0.000572237060438837,0.000543283656054899,0.817596055136158,3.22842153564043,61
76,2.50013609145346,154.808212280273,1.00477592041352,120.726570129395,0.996985878165985,108.465202331543,0.996592417910116,128.075317382812,1,68723,0.00249078211775072,0.00221015083060778,0.00165786014022918,0.00100124887020011,0.00167050226428461,103,0.941524922847748,0.786238474261407,0.440871324010884,0.884636673746541,0.359063684940338,0.0638347171268585,0.3212752644675,0.676670423717421,0.00120411929308739,0.00149171531326135,0.00138539239881853,0.817596055136158,3.22842153564043,61
77,2.5334712393395,154.911483764648,1.00544619945904,120.633010864258,0.996213245712227,108.455497741699,0.996503250873598,128.424667358398,1,67812,0.00554734175714028,0.00310938518327812,0.00250589175119422,0.00145458401269012,0.00251318070208143,103,0.931011617183685,0.789378477752217,0.443284374447001,0.875795890428651,0.359371900558472,0.0704903847395679,0.314590337993276,0.672268205886689,0.00194844254001708,0.00224278956903346,0.00194604517332908,0.817596055136158,3.22842153564043,61
78,2.56680638722555,154.780197143555,1.00459408939586,120.691764831543,0.996698448560338,108.528060913086,0.997169970751209,128.226409912109,1,68046,0.00449989348126817,0.00362608589745076,0.00306017647831198,0.00171532563762721,0.00308390121109341,103,0.928570926189423,0.788603787633856,0.447050524645093,0.878818013922432,0.357419818639755,0.0676103268801095,0.312435705258208,0.671532977824951,0.00236698115714894,0.0026543606445456,0.00208804591032681,0.817596055136158,3.22842153564043,61
79,2.6001415351116,154.685394287109,1.00397877560895,120.795936584473,0.997558721211697,108.518646240234,0.997083467509807,128.202438354492,1,67970,0.000846954017821033,0.00363016722723803,0.00310798321198887,0.0017043803083954,0.00315733268856552,103,0.927907884120941,0.787597469471826,0.447050169192291,0.877836469539837,0.356421738862991,0.0699608673752728,0.312476092393703,0.670797944623297,0.00235996474493445,0.00262791465287178,0.00178594409076536,0.817596055136158,3.22842153564043,61
80,2.63347668299764,154.802932739258,1.00474165378383,120.640205383301,0.996272659591693,108.556861877441,0.997434597766032,128.415512084961,1,68114,0.00663577132265197,0.0030990667791995,0.00255925112992398,0.00139020665046772,0.0026279217943136,103,0.917362332344055,0.791090426833446,0.45018645212438,0.876560368568708,0.356431812047958,0.069029418577716,0.308570925213612,0.668228146522991,0.00192180430509244,0.00215997962219289,0.001122014817001,0.817596055136158,3.22842153564043,61
81,2.66681183088369,154.796936035156,1.00470273243855,120.681732177734,0.996615596755993,108.521347045898,0.99710828286431,128.689544677734,1,68238,0.00477151523028069,0.00212457475661697,0.00148664156755988,0.000796054903302166,0.00155778565114858,103,0.961093187332153,0.789198589251346,0.450775227878894,0.878156126940005,0.358069747686386,0.0760816410573186,0.361851167970925,0.688310185708322,0.00113964619246963,0.00134041010709108,0.000251653539203744,0.817596055136158,3.22842153564043,61
82,2.70014697876973,154.835067749023,1.00495022465704,120.80933380127,0.997669358297957,108.355598449707,0.995585363156488,128.34619140625,1,68467,-0.00170404712496003,0.000895785375205818,0.000111571862127924,1.39680012025283e-06,0.000167689946197019,103,0.9645134806633,0.791958169629164,0.456730979888121,0.881103132319255,0.355484843254089,0.0692353228836898,0.362028422451692,0.690848036920606,0.000169306263107546,0.000328005330261026,-0.000644013837832336,0.817596055136158,3.22842153564043,61
83,2.73348212665578,154.6865234375,1.0039861043101,120.733894348145,0.997046363133416,108.579566955566,0.997643214983545,128.731597900391,1,68367,0.00376752505938471,-0.000343380598494061,-0.00126200866724645,-0.000870412272483197,-0.00123123102343749,103,0.967274069786072,0.791332075416502,0.451109453391256,0.874515522468245,0.354674756526947,0.0769663711833404,0.352275220501119,0.688225357240708,-0.000803655249678516,-0.00068869102529771,-0.00140644941463059,0.817596055136158,3.22842153564043,61
84,2.76681727454183,154.872604370117,1.00519385445195,120.770217895508,0.99734633076877,108.35718536377,0.995599943929755,128.26904296875,1,68595,-0.000343357932456878,-0.00135666653756579,-0.00234398002259835,-0.00167681801232466,-0.0023411897532709,103,0.967374980449677,0.793366863474014,0.457700998615059,0.877431981273264,0.353550881147385,0.074228993182138,0.350492018368686,0.688738882571817,-0.0016063438889401,-0.00153415516443259,-0.00193238438023951,0.817596055136158,3.22842153564043,61
85,2.80015242242787,154.834808349609,1.0049485410365,120.841674804688,0.99793643723227,108.323516845703,0.99529059319693,127.93724822998,1,68291,-0.00319993155008902,-0.00198107131752,-0.00294891910799326,-0.00227722065482248,-0.00296875624349495,103,0.96632331609726,0.793174307985923,0.461041718528064,0.873543369533239,0.352442800998688,0.0817120124844903,0.351671523333968,0.687476073290775,-0.00211295076254041,-0.00208040228450591,-0.00217964691185454,0.817596055136158,3.22842153564043,61
86,2.83348757031392,154.802474975586,1.00473868268877,120.801300048828,0.997603013849306,108.396263122559,0.995958995471456,128.107238769531,1,69219,-0.000879555053723391,-0.00217123657477476,-0.00304615708342111,-0.00256200755069608,-0.00307828042667553,103,0.961240112781525,0.79439171325792,0.460393822505381,0.88156855752821,0.351691693067551,0.0703023510532617,0.341770323177162,0.686294059313876,-0.00226349945410438,-0.0022659311641426,-0.00215505381386782,0.817596055136158,3.22842153564043,61
87,2.86682271819996,154.753799438477,1.0044227562474,120.831985473633,0.997856420660772,108.414253234863,0.996124290968397,128.069671630859,1,69137,-0.0016819786808262,-0.00200141693921435,-0.00274941472127997,-0.00247226240362696,-0.0027804759237288,103,0.960432827472687,0.793588575340749,0.462646629156602,0.880524211008941,0.351479172706604,0.0721872691612114,0.340714812618424,0.685418921394212,-0.00206474174557089,-0.00209667204439702,-0.00189277159983394,0.817596055136158,3.22842153564043,61
88,2.90015786608601,154.74040222168,1.00433580219865,120.825569152832,0.997803433309096,108.434028625488,0.996305989835264,127.878288269043,1,69262,-0.00120188272409327,-0.00162032541181861,-0.00225213426086511,-0.00200967091233967,-0.00226961014469889,103,0.958150207996368,0.792507676166825,0.466388495856314,0.882116202654168,0.35189288854599,0.0719580223642986,0.339276948398833,0.684381193333936,-0.00157679397417904,-0.00163260760230309,-0.00143297031870313,0.817596055136158,3.22842153564043,61
89,2.93349301397206,154.751922607422,1.00441057475766,120.745849609375,0.997145092241713,108.502212524414,0.996932472386647,128.62109375,1,69041,0.00239475450004223,-0.00117910129512941,-0.00173920984340569,-0.00123744102662781,-0.00173819889177589,103,0.944376468658447,0.796705339339426,0.466317115916629,0.873892461141208,0.350160986185074,0.0777175839198015,0.3294564099593,0.678891653597189,-0.000892690911102915,-0.000967330629393906,-0.000813750539852877,0.817596055136158,3.22842153564043,61
90,2.9668281618581,154.539810180664,1.00303386834339,120.836120605469,0.997890569465301,108.624046325684,0.998051897234252,128.322570800781,1,70724,0.000916028250683154,-0.000770638346879965,-0.0013166484299652,-0.000269677561964818,-0.00130606024109727,103,0.939201354980469,0.791442791697302,0.46616424410384,0.895195179990886,0.349517464637756,0.0582881879398511,0.329336575985521,0.679630102211306,-0.000118366129028584,-0.000207995774810232,-7.65483841833405e-05,0.817596055136158,3.22842153564043,61
91,3.00016330974415,154.689071655273,1.00400264340593,120.862312316895,0.998106866229042,108.448638916016,0.996440231089141,129.490036010742,1,69628,-0.00224157244628276,-0.000413852464388928,-0.000990840907710232,0.000749065265978742,-0.000993455137634354,103,0.962113380432129,0.800434691024683,0.47432067559028,0.879618985055017,0.345892876386642,0.0610179769319201,0.291089791463204,0.679070365296503,0.000642015787015212,0.000539508220418987,0.000722075727536223,0.817596055136158,3.22842153564043,61
92,3.03349845763019,154.714797973633,1.0041696189483,120.808662414551,0.997663813842609,108.476516723633,0.996696376019515,129.186477661133,1,69798,-5.28765023347644e-05,-8.80768139006925e-05,-0.0007027275826678,0.00166778748518246,-0.000746189853556282,103,0.966095447540283,0.801498610275366,0.479025186968108,0.881198868801131,0.344456911087036,0.0597288152711847,0.279793117281297,0.678225596953014,0.00129439771526824,0.00117905689899911,0.00149953587869001,0.817596055136158,3.22842153564043,61
93,3.06683360551624,154.747543334961,1.00438215128158,120.745315551758,0.997140681879504,108.507164001465,0.996977967203235,129.193008422852,1,69152,0.00250149787556758,0.000210575744541019,-0.000393402594350329,0.00235348874434571,-0.000494701187570765,103,0.962494850158691,0.802199020515194,0.481128528459047,0.87303210493757,0.345128774642944,0.0717847719324824,0.269753586302638,0.673528670394042,0.0017594118438773,0.00162910233691928,0.00214779895232435,0.817596055136158,3.22842153564043,61
94,3.10016875340229,154.794387817383,1.00468619334271,120.786483764648,0.997480657800606,108.419136047363,0.996169154886142,128.791015625,1,69634,-3.1768628338702e-05,0.000432044861741153,-6.26545099333417e-05,0.00271217013321896,-0.000215927382758806,103,0.960211157798767,0.803213947209696,0.490909613120028,0.879117272027169,0.344743400812149,0.0657501041548309,0.269006519803544,0.673976866187567,0.00197709183078321,0.00182781415707473,0.00255247013023482,0.817596055136158,3.22842153564043,61
95,3.13350390128833,154.853485107422,1.00506976171495,120.747261047363,0.997156748198978,108.399253845215,0.995986474621075,128.997772216797,1,69539,0.00104799665344651,0.000479692218893097,0.000211887155760345,0.00270316976630531,3.56870276427498e-05,103,0.949682712554932,0.806755921137779,0.493262773407728,0.876468364003025,0.344882607460022,0.0664608016133098,0.263449287450208,0.670827991598201,0.00191409028441435,0.00174074908145632,0.00262401429100749,0.817596055136158,3.22842153564043,61
96,3.16683904917438,154.928146362305,1.00555434731922,120.665107727051,0.996478308480959,108.406707763672,0.996054962195507,128.872314453125,1,69541,0.0039395643918238,0.000257391837040999,0.000304993939333493,0.00234243643278897,0.000144017673303168,103,0.948684513568878,0.80667999213893,0.496297148444802,0.876493571968742,0.344382256269455,0.0680489034534913,0.262607670295222,0.670140836326491,0.00157259823909068,0.00137015329214226,0.00232839067739041,0.817596055136158,3.22842153564043,61
97,3.20017419706042,154.991744995117,1.00596713145955,120.742782592773,0.997119764161601,108.265434265137,0.994756922875381,128.616561889648,1,69342,-0.000523502854321956,-0.000272176542304246,0.000107862631940194,0.00169712978700146,-1.15374373003841e-05,103,0.947201371192932,0.807432724755559,0.496784055839174,0.873985379379884,0.344382554292679,0.072535921351147,0.262337400132676,0.669148620359697,0.000997000812184068,0.000761864169007989,0.00170710005150504,0.817596055136158,3.22842153564043,61
98,3.23350934494647,155.076873779297,1.00651965610419,120.718704223633,0.996920919831171,108.204414367676,0.994196264103314,128.434112548828,1,69692,-0.000491136417967886,-0.00105133790401862,-0.000405825761724361,0.000874013042531407,-0.00048195142123363,103,0.948697030544281,0.807290171994873,0.498866440911439,0.878396773380388,0.344414710998535,0.0660448701789766,0.263444871721288,0.670754087150666,0.000273049899628192,4.5106291210739e-06,0.000875147608120355,0.817596055136158,3.22842153564043,61
99,3.26684449283252,155.091598510742,1.00661522632861,120.754539489746,0.997216855135363,108.153861999512,0.993731782354912,128.425659179688,1,69511,-0.00235722167460212,-0.00193183737778977,-0.00114373217402528,-2.52692690362531e-06,-0.00119931223556447,103,0.948594570159912,0.807387799532928,0.498050668239559,0.876115452482985,0.344089478254318,0.068300983110663,0.264145243198918,0.670527093788641,-0.000484009245762711,-0.00078273046251323,-7.26748140466969e-06,0.817596055136158,3.22842153564043,61
100,3.30017964071856,155.108444213867,1.00672456262682,120.719551086426,0.99692791340553,108.17204284668,0.99389883034864,128.296310424805,1,69660,-0.000927325469281259,-0.00271538514613384,-0.00190664333217268,-0.000808193529560577,-0.00197166122498172,103,0.947516083717346,0.807728012249976,0.496497272466265,0.877993445928913,0.344468533992767,0.0671288127048147,0.263077806488659,0.670299574644293,-0.0011516454621788,-0.00147291045718818,-0.000779010712517021,0.817596055136158,3.22842153564043,61
101,3.33351478860461,155.147384643555,1.00697730377992,120.70711517334,0.996825214971246,108.1455078125,0.993655022995646,128.531875610352,1,69225,-0.000843381304466984,-0.00321092675040372,-0.0024462485158257,-0.00144005061947145,-0.00253902669534142,103,0.963521003723145,0.806803900325027,0.496785843264717,0.87251071338543,0.345444530248642,0.0734182001512478,0.377276995305164,0.695949518032625,-0.00162710937598777,-0.00195912183759545,-0.00132319774200091,0.817596055136158,3.22842153564043,61
102,3.36684993649066,155.287719726562,1.00788814248878,120.722351074219,0.996951036304538,107.989906311035,0.992225336116887,128.314178466797,1,69739,-0.00337264835401957,-0.00328846011102404,-0.00254893532020872,-0.00182995897741836,-0.00266500841955213,103,0.962782680988312,0.807439166033353,0.499046444600582,0.878989160574742,0.345337480306625,0.0663977816990169,0.376489482212249,0.696857754824356,-0.0018506800687814,-0.00217840648120539,-0.00159626603876756,0.817596055136158,3.22842153564043,61
103,3.4001850843767,155.18830871582,1.00724291967827,120.707015991211,0.996824395903979,108.104644775391,0.993279568084019,128.573348999023,1,69724,-0.00135807891798156,-0.00291510997851254,-0.00211492762192358,-0.00195161671941894,-0.00223032799635576,103,0.963114857673645,0.807469450978142,0.498379324192531,0.878800100831863,0.344713151454926,0.0650869674817242,0.377875623888475,0.697433814594659,-0.0018167925149756,-0.00212336155017563,-0.00163050597706615,0.817596055136158,3.22842153564043,61
104,3.43352023226275,155.231307983398,1.0075220045409,120.71800994873,0.9969151863603,108.050682067871,0.992783751693067,128.28076171875,1,70205,-0.00242489336990737,-0.00216381949134308,-0.00120156057003217,-0.00182246684511332,-0.00128923454513442,103,0.964767217636108,0.809287087814258,0.501032689979346,0.8831928544471,0.343875348567963,0.0628884136369355,0.36681148066377,0.696349371922723,-0.00156880532523962,-0.00183706504379604,-0.00150949974201337,0.817596055136158,3.22842153564043,61
105,3.46685538014879,155.137649536133,1.00691411849164,120.66202545166,0.996452854390498,108.200347900391,0.994158900871817,128.523452758789,1,70129,0.0014228460136575,-0.00118984354560129,-1.03908442582416e-05,-0.00149392615177266,-5.50801088538204e-05,103,0.964309751987457,0.806699083118254,0.501903634730283,0.882236759340798,0.343434065580368,0.0651905900113222,0.367380113790301,0.695462782976764,-0.00117948773046222,-0.00139334537027599,-0.0013262661957585,0.817596055136158,3.22842153564043,61
106,3.50019052803484,155.117248535156,1.00678170668847,120.68620300293,0.996652517788195,108.196571350098,0.994124201435437,128.211212158203,1,71448,0.00055908957112627,-0.000179767052394465,0.00118170370767698,-0.00104247052858062,0.00117486438407325,103,0.955300331115723,0.809297204493711,0.503862949277796,0.891706708268331,0.343502849340439,0.0537784711388456,0.349121039077371,0.691904176110932,-0.000725235372710741,-0.000870681792663159,-0.00114280797354945,0.817596055136158,3.22842153564043,61
107,3.53352567592089,155.025497436523,1.00618620020196,120.681602478027,0.996614525668028,108.292892456055,0.995009212312824,128.576171875,1,71210,0.00197024451618366,0.000710234916790708,0.00212391785306039,-0.000551594142449828,0.00213685626801791,103,0.945347845554352,0.811313954032673,0.509254318213734,0.889913645509192,0.342598050832748,0.0549244554418326,0.339601179609605,0.687732075246351,-0.000264526650891873,-0.000330170749751757,-0.000968088509507664,0.817596055136158,3.22842153564043,61
108,3.56686082380693,154.962356567383,1.0057763871567,120.705268859863,0.996809967719039,108.332359313965,0.995371838947971,128.642272949219,1,71388,0.00168458453685094,0.0014035467969942,0.00268546214723564,-9.96474767845197e-05,0.00270018096556682,103,0.930625379085541,0.812676266786201,0.514526250910517,0.89170351495166,0.343595832586288,0.0523745284668615,0.329453129377486,0.682702299449425,0.000170756007049268,0.000193390607799855,-0.000764592770776069,0.817596055136158,3.22842153564043,61
109,3.60019597169298,154.940246582031,1.00563288326531,120.640007019043,0.996271021457158,108.41975402832,0.996174832975732,128.62532043457,1,70784,0.00503974496761661,0.00191960453508191,0.00290111868076501,0.000254883538031671,0.00291391887032955,103,0.911816596984863,0.815160676612417,0.523027802893309,0.887540280616403,0.342919081449509,0.0590949556756486,0.319733273056058,0.675477746271807,0.000568723813857022,0.000685017763772295,-0.000480406835301171,0.817596055136158,3.22842153564043,61
110,3.63353111957902,154.908386230469,1.00542609504914,120.672981262207,0.996543329820947,108.418678283691,0.996164948893854,129.034057617188,1,71592,0.00391259729872817,0.00234897730155406,0.00294466218905764,0.000478679680130056,0.00296819167008981,103,0.893664002418518,0.815277312176407,0.525128505978322,0.895571678759069,0.340863287448883,0.0506004503377533,0.313023801542072,0.670980151294285,0.000920537557304669,0.00113246925550594,-9.10440166802475e-05,0.817596055136158,3.22842153564043,61
111,3.66686626746507,155.002395629883,1.00603625893794,120.647087097168,0.996329490259008,108.350494384766,0.99553846634247,129.953033447266,1,71168,0.00391310633174713,0.00279408157493877,0.00303682364928045,0.000567902363356681,0.00309257146540271,103,0.963316977024078,0.818804331534772,0.527048673561151,0.887049732020441,0.337587416172028,0.0561635298516764,0.306865445143885,0.686977034815483,0.00120350987635104,0.00150921286157881,0.000369406902654821,0.817596055136158,3.22842153564043,61
112,3.70020141535112,155.016860961914,1.00613014554183,120.659912109375,0.996435401957187,108.323226928711,0.995287929401814,130.067413330078,1,71616,0.00313027068316246,0.00329959422311853,0.00332621820028118,0.000542697477920731,0.00342888595790307,103,0.966603457927704,0.822856158772714,0.536653820375335,0.893480050902014,0.33460733294487,0.0511390573146693,0.295897564789991,0.68721936002412,0.00137509476731677,0.00176831241890175,0.000804124196521737,0.817596055136158,3.22842153564043,61
113,3.73353656323716,155.088577270508,1.00659561710122,120.582527160645,0.995796340473173,108.328910827637,0.995340153806064,130.036437988281,1,71562,0.00583732173755686,0.00380750288919276,0.00379942752598675,0.000441222349822005,0.00394656712432012,103,0.955797612667084,0.826532703576386,0.545848355272351,0.891593885102725,0.333374947309494,0.0570624073358833,0.286967943880831,0.682519547484473,0.00138367719105244,0.00185338355309125,0.0010822383934803,0.817596055136158,3.22842153564043,61
114,3.76687171112321,155.179885864258,1.00718825152917,120.552253723145,0.995546335941124,108.267837524414,0.994779004334896,130.012756347656,1,71377,0.00607890226999969,0.00416585001211859,0.00426852913190394,0.00030778425066688,0.00443930753877059,103,0.943703651428223,0.828833751301773,0.552180674446951,0.890176221892421,0.332297921180725,0.0549617749398252,0.28007621502725,0.678914022132488,0.00119342794485398,0.00172380118570192,0.0010918246624994,0.817596055136158,3.22842153564043,61
115,3.80020685900925,155.020812988281,1.00615579599585,120.631538391113,0.996201085713566,108.347648620605,0.99551231909041,129.727569580078,1,71296,0.00442838634211967,0.00419509316593774,0.00445062807163632,0.000183345936695914,0.00461621264280658,103,0.938122749328613,0.826741098144823,0.555150359066427,0.889166032700198,0.333239555358887,0.0618959130987865,0.279791292639138,0.67593381939314,0.000812305579332224,0.00138332633559914,0.000795979355081984,0.817596055136158,3.22842153564043,61
116,3.8335420068953,155.212829589844,1.00740207133698,120.499931335449,0.995114246455038,108.28727722168,0.994957618807418,129.853393554688,1,70382,0.0081197902522086,0.00378404015727262,0.00410846815020749,9.7702464686352e-05,0.00424827926534403,103,0.92284494638443,0.83443683517566,0.565400244380665,0.875692085650654,0.332117170095444,0.0708446866485014,0.271177289647921,0.670498911697064,0.000308347049342461,0.000896955513496244,0.000264905344601548,0.817596055136158,3.22842153564043,61
117,3.86687715478135,155.217742919922,1.00743396109063,120.579681396484,0.995772839543119,108.202568054199,0.994179299934417,129.920211791992,1,70366,0.00431953047454242,0.00296734028581757,0.00318637154528238,6.26759679959504e-05,0.00329865059937087,103,0.921315670013428,0.834801845588305,0.566054628655885,0.87549301382305,0.331879407167435,0.0739800679332612,0.271039990904698,0.669660473932636,-0.000197489932004491,0.000384150282334283,-0.000332785846026357,0.817596055136158,3.22842153564043,61
118,3.90021230266739,155.208206176758,1.00737206327688,120.597221374512,0.995917688439081,108.194541931152,0.994105554869624,129.905410766602,1,70334,0.00362587103311746,0.0019406887468372,0.00187082748448125,7.53790788379761e-05,0.00197516349512653,103,0.921799063682556,0.834390195353599,0.565928285039952,0.875094870167842,0.33113420009613,0.0720764435817999,0.270722552392868,0.669940084496844,-0.000564346972415437,-1.40501014322298e-05,-0.000780427517213044,0.817596055136158,3.22842153564043,61
119,3.93354745055344,155.220443725586,1.00745149055148,120.623863220215,0.996137702508112,108.15567779541,0.993748466124324,129.927474975586,1,70358,0.0022235221533668,0.000997676738347042,0.000535719694213043,0.000118964507158213,0.000660375279464175,103,0.923348605632782,0.834304556695756,0.56432815031695,0.875393477909248,0.330146163702011,0.06998618939196,0.270701270644419,0.670640526573517,-0.000680814886870517,-0.000184603761728839,-0.000891734356625918,0.817596055136158,3.22842153564043,61
120,3.96688259843948,155.141403198242,1.00693848147113,120.605796813965,0.995988506255115,108.252769470215,0.994640557088731,130.391403198242,1,70753,0.00410192667101877,0.000410194493831351,-0.000413669010434794,0.000172481805956784,-0.000248371815379278,103,0.927052557468414,0.834117752368569,0.559933854394867,0.880308063653217,0.329287379980087,0.0615131947295734,0.272285274122652,0.673201633508616,-0.000511707657621196,-8.96532344159853e-05,-0.000586908642444,0.817596055136158,3.22842153564043,61
121,4.00021774632553,155.062881469727,1.00642883963186,120.654830932617,0.996393440511032,108.282257080078,0.994911493091986,130.864135742188,1,71351,0.00282566950935553,0.000302872782089002,-0.000731355041987253,0.000216727519181151,-0.000528821258720287,103,0.964116215705872,0.826365432860086,0.546957996384073,0.887748373209909,0.329603582620621,0.0569469846839113,0.306821207831705,0.6885548645154,-0.000121437197692372,0.000209567078007886,6.58694955418294e-05,0.817596055136158,3.22842153564043,61
122,4.03355289421158,154.85563659668,1.00508372586173,120.711074829102,0.996857914656763,108.433296203613,0.996299260247602,130.400634765625,1,72715,0.00288117436180946,0.000578367592874191,-0.000465161917259913,0.000242596697437799,-0.000253786890902989,103,0.958080768585205,0.816406518600014,0.530674551330537,0.903123641557474,0.335546165704727,0.0492206421163758,0.298700405693461,0.684666274266376,0.000339679813135139,0.000566038999444058,0.000863140367835849,0.817596055136158,3.22842153564043,61
123,4.06688804209762,154.858154296875,1.00510006688456,120.751243591309,0.997189636900019,108.390625,0.995907191666435,129.658096313477,1,73008,0.000970218099374032,0.000934069245846863,3.78660745338623e-05,0.00025210292131024,0.000216518824816013,103,0.944409787654877,0.815581854043392,0.525997150997151,0.909586993085405,0.338138163089752,0.047305799539027,0.277969537584922,0.677243797313138,0.000685534525888922,0.000796852195707888,0.00153281481083632,0.817596055136158,3.22842153564043,61
124,4.10022318998367,154.905059814453,1.0054045050917,120.666870117188,0.996492862676247,108.428077697754,0.996251311935512,129.195663452148,1,73169,0.0043263276680231,0.000977377232417867,0.000272300549365513,0.000259017691130166,0.000385549127065569,103,0.922703564167023,0.814106156067916,0.518211264333256,0.909892433003793,0.338830262422562,0.0434993471367282,0.253563667673468,0.667249960248156,0.000764405260513191,0.00075338228970213,0.0018324373185679,0.817596055136158,3.22842153564043,61
125,4.13355833786972,155.089920043945,1.0066043323134,120.544479370117,0.995482133668403,108.365608215332,0.995677334187865,128.582611083984,1,72923,0.00767740056112109,0.000402606365672538,-0.000192008034613803,0.000281780244798957,-0.000151008636079502,103,0.897746682167053,0.814205851834583,0.514364466629184,0.902937024838414,0.340006619691849,0.0506302468982937,0.228432730414273,0.654863547487808,0.000522371428921933,0.000384850036731595,0.00164226416045298,0.817596055136158,3.22842153564043,61
126,4.16689348575576,155.072250366211,1.00648964804408,120.640602111816,0.996275935860762,108.287132263184,0.99495628690986,127.967063903809,1,73086,0.00340226269951305,-0.000846764153208931,-0.00148895630328067,0.000335597529253857,-0.001498577276438,103,0.874164700508118,0.811673918397504,0.505650877048956,0.907957015963724,0.341094076633453,0.043369153363563,0.212831458829324,0.646503186034225,3.30544575392508e-05,-0.000231760927477799,0.00101764367139962,0.817596055136158,3.22842153564043,61
127,4.20022863364181,155.365280151367,1.00839154502844,120.63109588623,0.99619743141345,108.003608703613,0.992351235486059,127.088394165039,1,72306,5.4254547731114e-05,-0.00251514426874281,-0.00335790875621466,0.00042478360342037,-0.00338166937153553,103,0.855074286460876,0.810970043979753,0.500871296987802,0.899910389804351,0.340707272291183,0.0499079006322497,0.197369512903493,0.637451218890708,-0.000521853000578298,-0.000911019696229079,0.000176551690425845,0.817596055136158,3.22842153564043,61
128,4.23356378152785,155.442260742188,1.00889118418101,120.590667724609,0.995863566994265,107.967086791992,0.992015667401302,126.001426696777,1,72714,0.000959388166352437,-0.0041164146344882,-0.00522700272521029,0.000536079904260254,-0.0052354995085076,103,0.837060928344727,0.809069321817898,0.495722969441923,0.902707601395389,0.341431438922882,0.0440466288438381,0.181024286932365,0.63023649322122,-0.000917915146451024,-0.00142447390172968,-0.000578873240614421,0.817596055136158,3.22842153564043,61
129,4.2668989294139,155.072402954102,1.0064906384091,120.682373046875,0.996620889190643,108.245216369629,0.994571158215969,126.458290100098,1,73778,0.00145874684987146,-0.00513419844805422,-0.00645167101803307,0.000638309355867386,-0.00643793993909961,103,0.79956728219986,0.954729052020928,0.907221664994985,0.918390718749222,0.346575230360031,0.0510244728259516,0.162948304372577,0.645263376176514,-0.000976479586005905,-0.00158935062997606,-0.000977376178106524,0.817596055136158,3.22842153564043,61
130,4.30023407729995,155.913131713867,1.01194735159614,120.54670715332,0.99550053117933,107.540161132812,0.988093018793233,124.321319580078,1,71605,-0.00307261491698207,-0.00525290222134707,-0.00660430697034556,0.000686765628337328,-0.0065853866651254,103,0.805018961429596,0.811707748527803,0.490943369876405,0.897272032379735,0.33787128329277,0.042805408317983,0.15512883178549,0.61777319108918,-0.000642426744730995,-0.00134657864841342,-0.00088555050939506,0.817596055136158,3.22842153564043,61
131,4.33356922518599,154.963088989258,1.00578114090879,120.742095947266,0.997114093695904,108.294822692871,0.995026947580308,127.740585327148,1,71554,8.66451492120834e-05,-0.00451145707558753,-0.00568038517002618,0.000635051684618088,-0.00568342527369107,103,0.96413242816925,0.797677278698605,0.4753053637812,0.898355304456999,0.343818753957748,0.0442686754551161,0.390278670654331,0.701541308840081,-1.88306171109512e-05,-0.000795625718572636,-0.000367097994372122,0.817596055136158,3.22842153564043,61
132,4.36690437307204,154.919677734375,1.00549938206061,120.681343078613,0.996612383492098,108.399002075195,0.995984161325316,127.225440979004,1,72099,0.00350634725452331,-0.0033023832371007,-0.00411979210917696,0.000446143193983284,-0.00416604893412684,103,0.952026128768921,0.795563507584479,0.469132720287383,0.908849111307198,0.346163600683212,0.0417118366317913,0.366523807542407,0.693750101356521,0.000658689169069677,-0.000169060521458023,0.000331053434251852,0.817596055136158,3.22842153564043,61
133,4.40023952095808,154.826522827148,1.00489476421592,120.610313415527,0.996025805318365,108.563179016113,0.997492640459614,126.817665100098,1,71668,0.00805286590675097,-0.00220889309177119,-0.0026257627028866,0.000108271746633992,-0.00271909817318039,103,0.934621393680573,0.794054994325687,0.461614667634091,0.903700901582498,0.347519993782043,0.0475127671647437,0.342914550426969,0.683447214624315,0.00110233896843026,0.000247829862588696,0.00086660162036152,0.817596055136158,3.22842153564043,61
134,4.43357466884413,154.635131835938,1.00365254937137,120.68643951416,0.996654470948602,108.678436279297,0.998551639218006,126.702331542969,1,72356,0.00696907088850124,-0.00175174680803661,-0.00185860037530938,-0.000358377702578381,-0.00198740290472305,103,0.912402093410492,0.793193837875689,0.456271767372436,0.914162981680354,0.350664973258972,0.037207833228048,0.324700093979767,0.675726056407226,0.00107953074873431,0.000224480905500437,0.000932683878779319,0.817596055136158,3.22842153564043,61
135,4.46690981673018,154.711532592773,1.00414842513687,120.746994018555,0.997154543017874,108.541458129883,0.997293066125521,126.084373474121,1,71690,0.00314280171750286,-0.00216225423769146,-0.00214101091190527,-0.000898932372583646,-0.00228679636109459,103,0.893367290496826,0.791319105407542,0.449100292927884,0.906779661016949,0.350675642490387,0.0413736402732102,0.310210629097503,0.667027987081502,0.000507444703009283,-0.000320255877128475,0.000382928313389164,0.817596055136158,3.22842153564043,61
136,4.50024496461622,154.958480834961,1.00575123188519,120.685050964355,0.99664300400686,108.356468200684,0.995593354541836,125.167335510254,1,71263,0.00285290979855962,-0.00328081178270458,-0.00330709160736927,-0.00143139718525918,-0.00345465377997124,103,0.876689493656158,0.791855521097905,0.44237542623802,0.902577417516307,0.349936753511429,0.0397694889494016,0.300268021273312,0.661233963656379,-0.000502211222583501,-0.001273428173421,-0.000697990525130347,0.817596055136158,3.22842153564043,61
137,4.53358011250227,155.261169433594,1.00771581897531,120.508140563965,0.9951820400227,108.230690002441,0.994437688060678,124.326301574707,1,70311,0.00723391707905968,-0.00461626425019108,-0.00476153816346894,-0.00186100420395967,-0.00490360291948975,103,0.859138548374176,0.79419057236184,0.439945385501557,0.893325879527869,0.347938179969788,0.0475942419352789,0.286398998734195,0.653287472603106,-0.00166769411406794,-0.00235262435846524,-0.00200808581194684,0.817596055136158,3.22842153564043,61
138,4.56691526038831,155.134460449219,1.00689341986272,120.613708496094,0.996053842620976,108.251808166504,0.994631724504925,123.497352600098,1,70395,0.00392967128188854,-0.00553301676912789,-0.00572253335949012,-0.00210108039329868,-0.00586078258770289,103,0.840427696704865,0.795198522622345,0.436479863626678,0.894779657569941,0.346996575593948,0.0413356551803033,0.274664393777967,0.64746580262743,-0.00262498304402306,-0.00319402451275262,-0.00312229421085122,0.817596055136158,3.22842153564043,61
139,4.60025040827436,155.650604248047,1.01024342857928,120.457649230957,0.994765071778472,107.891738891602,0.991323361070602,122.134262084961,1,69611,0.00456454846712157,-0.00549101740443512,-0.00554367624241116,-0.00209001107694853,-0.00568417276760323,103,0.823731124401093,0.794156096019307,0.433738920572898,0.880962324563069,0.343451142311096,0.0481035726489236,0.263923805145738,0.639852189709454,-0.00304891663923396,-0.00347385118829051,-0.00363657434487372,0.817596055136158,3.22842153564043,61
140,4.63358555616041,156.132415771484,1.01337060516634,120.406211853027,0.994340290892617,107.461395263672,0.987369307720112,120.320259094238,1,68569,0.000736291002574274,-0.00425108210012298,-0.00397908164761844,-0.00181057331864374,-0.004131277890824,103,0.812544643878937,0.794717729586256,0.434409135323543,0.87002144316293,0.3349888920784,0.048240772461396,0.253336055651971,0.635028394423556,-0.00276490385003115,-0.00302047736964784,-0.00331192526664944,0.817596055136158,3.22842153564043,61
141,4.66692070404645,153.595230102539,0.996903112723763,120.865196228027,0.998130682184968,109.539558410645,1.00646374161166,126.522735595703,1,72044,0.0121096582544041,-0.00196955011872324,-0.00128228080648612,-0.00129055449240199,-0.00145200539554378,103,0.944530129432678,0.922422408528122,0.823732718894009,0.918179037520392,0.356454193592072,0.050838601141925,0.348578646382766,0.712198567157639,-0.00181118064415604,-0.00187683220613608,-0.00216578973029026,0.817596055136158,3.22842153564043,61
142,4.7002558519325,153.518325805664,0.996403968753698,120.89192199707,0.998351389310917,109.58975982666,1.00692499876597,126.380249023438,1,73020,0.0118595246898181,0.00085553803090626,0.00189815478146085,-0.000605616866936474,0.00170953747114889,103,0.928474843502045,0.899187437231809,0.76569433032046,0.929350523730129,0.359320014715195,0.0443802420740477,0.323158038893454,0.699486967368716,-0.000429438414033184,-0.000291043175559304,-0.000475684772248364,0.817596055136158,3.22842153564043,61
143,4.73359099981854,153.533767700195,0.996504193693719,120.836219787598,0.997891388532569,109.630027770996,1.00729498588763,126.093872070312,1,72873,0.0142788963910437,0.0035653561422405,0.00477629337571144,0.000141651002201836,0.00457765933078531,103,0.911671698093414,0.863433644834164,0.655071151180821,0.926536216958462,0.363286525011063,0.0466618351959924,0.300358157342226,0.683210391327273,0.00101271650625214,0.00136145152538178,0.0013089164911702,0.817596055136158,3.22842153564043,61
144,4.76692614770459,153.65705871582,0.997304408629856,120.746612548828,0.997151392759153,109.596305847168,1.0069851444557,125.518051147461,1,72442,0.0168895475866391,0.00557377731564762,0.00672666050930304,0.000837368555265183,0.00653449697766835,103,0.895388960838318,0.845287724432419,0.596836089561304,0.923545685182116,0.364866346120834,0.0468644424329734,0.279713425913144,0.671349159489417,0.00213978013384316,0.00269632695231503,0.00271219015885051,0.817596055136158,3.22842153564043,61
145,4.80026129559064,153.766357421875,0.998013807093661,120.659233093262,0.996429794496665,109.574394226074,1.00678381762482,125.093719482422,1,71783,0.0195780006714724,0.0065607159830537,0.00749757568216661,0.00138251822541419,0.00733223583972957,103,0.879132986068726,0.812518284273435,0.489614532688798,0.915225928192574,0.363971143960953,0.0551305589555284,0.260618809467423,0.655589775832468,0.00268574832784643,0.00343836758249291,0.0033852259632803,0.817596055136158,3.22842153564043,61
146,4.83359644347668,153.950790405273,0.999210861293301,120.670913696289,0.996526255418683,109.378288269043,1.0049819705284,124.109413146973,1,72051,0.016644396704466,0.00655500509859923,0.00725860568571061,0.00171063669705359,0.00713423992354431,103,0.861871957778931,0.783634740207168,0.404380230669942,0.917192830592189,0.365332037210464,0.0473929426141861,0.249226242522658,0.644457315172428,0.00257130253041516,0.00349916611690876,0.00321607189862788,0.817596055136158,3.22842153564043,61
147,4.86693159136273,154.096343994141,1.00015557048585,120.596252441406,0.995909686781932,109.307403564453,1.00433067262251,123.439903259277,1,71357,0.0182659770092765,0.0058839396177132,0.00647645125041845,0.00180161170973029,0.00639367681160333,103,0.84842050075531,0.774770987195837,0.375169920260101,0.910339988518211,0.363846451044083,0.0495120239841806,0.235618089325504,0.636261016655627,0.00191685343689894,0.00299064855511168,0.00235650173186779,0.817596055136158,3.22842153564043,61
148,4.90026673924878,154.399993896484,1.00212639687559,120.528793334961,0.995352595029821,109.07120513916,1.00216045070148,122.901298522949,1,70322,0.017499134710343,0.00501825288460349,0.00568671022544825,0.00168070467761538,0.00562940398093489,103,0.839701354503632,0.769555283789805,0.364480532408066,0.897227502966432,0.362651288509369,0.0514436633195963,0.22368533318165,0.630342475889064,0.000990681340156628,0.00217356750914069,0.00115834768598173,0.817596055136158,3.22842153564043,61
149,4.93360188713482,154.705078125,1.00410653269653,120.448310852051,0.994687953444997,108.846633911133,1.00009706098457,122.013648986816,1,69697,0.0173254480611057,0.00437879175158487,0.00526771267645831,0.00141220048379933,0.00521232866300922,103,0.828320384025574,0.762290103352129,0.341420721121426,0.887170478990848,0.360868602991104,0.0575349091788546,0.213352081151269,0.623002947438456,0.00011356605001301,0.00136241076066581,4.60250857298222e-05,0.817596055136158,3.22842153564043,61
150,4.96693703502087,154.903747558594,1.00539598795253,120.539413452148,0.995440298232596,108.556854248047,0.99743452766616,119.876579284668,1,69309,0.0104806101433947,0.00418263638798463,0.00531214735274505,0.00107912645543738,0.0052406664327304,103,0.83554083108902,0.757708234139866,0.328139202700948,0.882231641654256,0.358884423971176,0.054479958249004,0.217792783044049,0.625268617889197,-0.000445523461021788,0.000821374615117726,-0.000627852881445657,0.817596055136158,3.22842153564043,61
151,5.00027218290691,152.978729248047,0.992901740933573,120.910362243652,0.99850367281746,110.110893249512,1.01171324058703,124.672073364258,1,71842,0.0180458793431168,0.00438850493074993,0.00564018488844004,0.000766925877343012,0.00555623582234493,103,0.94197028875351,0.900647717676754,0.768672921132485,0.915662957723142,0.375878185033798,0.0601715545699028,0.31357701623006,0.698710070238556,-0.00054787513322633,0.000686262248160331,-0.000695424382582485,0.817596055136158,3.22842153564043,61
152,5.03360733079296,153.191619873047,0.994283498209437,120.821594238281,0.997770607613229,109.986763000488,1.01057271567811,124.774368286133,1,71494,0.0194557913681371,0.00475741300485728,0.00592985332898161,0.000538610000070016,0.00585897151000796,103,0.945371091365814,0.847423093779431,0.622415867065768,0.911227520106043,0.376106888055801,0.0614206145885112,0.312445799647523,0.688489253192683,-0.000214581960376977,0.000935204347406897,-0.000217209312034928,0.817596055136158,3.22842153564043,61
153,5.06694247867901,153.094772338867,0.993654913531261,120.892959594727,0.998359958014637,110.012260437012,1.01080698944859,124.952789306641,1,71470,0.0173697391933795,0.00498920726492598,0.0058885973261692,0.000425875603589143,0.00586718887249287,103,0.945386826992035,0.847446481040996,0.622568910032181,0.910921627856587,0.375785559415817,0.0617392523483603,0.310829718763117,0.688123666333094,0.000397459612358717,0.00141310248221686,0.000557965204819625,0.817596055136158,3.22842153564043,61
154,5.10027762656505,153.025146484375,0.993203009972648,120.94750213623,0.998810382006475,110.02734375,1.0109455768945,125.309219360352,1,71599,0.0157196744043935,0.00485906929662982,0.00537888750137926,0.000421062973741178,0.00543168117455342,103,0.946475446224213,0.756830868215105,0.351862456179556,0.912565798697409,0.374558955430984,0.0574185243248066,0.311624464028827,0.671122964112871,0.00105937178899627,0.00189570024524673,0.00129427055788456,0.817596055136158,3.22842153564043,61
155,5.1336127744511,153.019577026367,0.993166861649419,120.986877441406,0.999135551711592,109.99356842041,1.01063524476347,125.562637329102,1,71846,0.0139511114041657,0.00428755369019435,0.00444470321999344,0.000481844204501591,0.00456862355885325,103,0.947421848773956,0.755068711781681,0.345920440943128,0.915713939764718,0.373827487230301,0.0535693801858295,0.311374328424686,0.67157296940503,0.00154871030118107,0.00216797095945343,0.00169102562262736,0.817596055136158,3.22842153564043,61
156,5.16694792233714,152.945541381836,0.992686336541729,121.02416229248,0.999443457998921,110.030288696289,1.01097263544489,126.004371643066,1,71682,0.0131673501171495,0.00332671169954579,0.00324410977303466,0.000543508470061394,0.00340864012166794,103,0.949414193630219,0.751071863694279,0.333444937362239,0.913623676060108,0.372771829366684,0.0536331077377994,0.312282023381044,0.671443028584571,0.00171552888754004,0.00208987210158021,0.00158374735421944,0.817596055136158,3.22842153564043,61
157,5.20028307022319,152.938446044922,0.9926402845683,121.025451660156,0.999454105873396,110.036109924316,1.01102612164682,126.212272644043,1,71315,0.0132052017557167,0.00209529852955081,0.00194185841268861,0.000535268090428244,0.00210659563595139,103,0.949539005756378,0.751599710205894,0.333912921545257,0.908946073745523,0.373359888792038,0.0597764437476899,0.313089812802356,0.670758425041114,0.0015166653055786,0.00163002900618906,0.000988935074203572,0.817596055136158,3.22842153564043,61
158,5.23361821810924,152.957275390625,0.992762495611765,121.067962646484,0.999805170705194,109.974769592285,1.01046251868015,126.769325256348,1,70995,0.0109725304844797,0.000714291423292438,0.000628702644976001,0.000397565060835839,0.000766821444471945,103,0.948570549488068,0.744019531891917,0.329164025635608,0.906427148766662,0.370874971151352,0.0585388897400541,0.306246918797098,0.667829705151411,0.0010118884140785,0.000861018206643734,8.14702108904183e-05,0.817596055136158,3.22842153564043,61
159,5.26695336599528,152.943832397461,0.992675244453505,121.086860656738,0.999961234522201,109.969291687012,1.01041218697243,127.392646789551,1,70331,0.0102658118236071,-0.000723318649186761,-0.000691955631881501,9.77061019330904e-05,-0.000578746317384372,103,0.944614231586456,0.745569758238425,0.338485163014887,0.903683811530703,0.369388043880463,0.0590797538129441,0.301275397762011,0.66606982848663,0.000329018879810488,-7.64617561563081e-05,-0.000881506248802182,0.817596055136158,3.22842153564043,61
160,5.30028851388133,153.185943603516,0.994246656630694,121.074783325195,0.999861497331114,109.739280700684,1.00829881604717,127.591445922852,1,70564,0.00769919146033005,-0.00214641631619657,-0.0020547686440721,-0.000362355195267626,-0.00194058183898701,103,0.931768417358398,0.748318311509174,0.354033218071538,0.909775405482066,0.368411660194397,0.0493540651349888,0.29493792868885,0.663696701957606,-0.000385677547631519,-0.00102404447516822,-0.00165814505919315,0.817596055136158,3.22842153564043,61
161,5.33362366176737,153.534378051758,0.996508155153799,121.021911621094,0.999424871472471,109.443740844727,1.00558335732579,128.759872436523,1,69564,0.00566774305969475,-0.00348459018680563,-0.00346162088149813,-0.000943300810467856,-0.00331523796045202,103,0.959298729896545,0.759281620761697,0.375654073946294,0.895646911895351,0.367575585842133,0.052131481028467,0.282861825081939,0.669912334678309,-0.0010131194039665,-0.0018519762408788,-0.00210269479272748,0.817596055136158,3.22842153564043,61
162,5.36695880965342,153.437255859375,0.995877787818587,121.045196533203,0.999617163264762,109.517562866211,1.0062616436822,129.322738647461,1,70383,0.00584051187407486,-0.00465703262976554,-0.00483838305702833,-0.0015743735860933,-0.00464486259774501,103,0.965144753456116,0.764057608608139,0.389639543639799,0.906541815324772,0.362518072128296,0.0404693517433249,0.267607234701561,0.671144060747037,-0.00148859388035907,-0.00248681036840892,-0.00220207419040701,0.817596055136158,3.22842153564043,61
163,5.40029395753947,153.364898681641,0.995408156726116,121.093597412109,1.0000168680912,109.541511535645,1.00648168717876,129.945693969727,1,70056,0.00451387700501993,-0.00558393844414186,-0.00604643492814299,-0.00216471878632469,-0.00581650932883677,103,0.947580337524414,0.768337710783754,0.396211602146854,0.903517030578949,0.35922959446907,0.0417993989966081,0.258321913897453,0.665539105477888,-0.00180443541053232,-0.00291436174216652,-0.00205847802139815,0.817596055136158,3.22842153564043,61
164,5.43362910542551,153.521743774414,0.996426152930145,121.189544677734,1.00080922116455,109.288711547852,1.00415892793739,130.189086914062,1,70343,-0.00201587731735009,-0.00621331562467417,-0.00693985920050374,-0.00261889666333699,-0.0067032309570148,103,0.921729862689972,0.772021854816163,0.402783503689066,0.905630013003232,0.357122123241425,0.0384045936168295,0.250941813684375,0.658880464393908,-0.00199152265486991,-0.00316140571640389,-0.00182811988838878,0.817596055136158,3.22842153564043,61
165,5.46696425331156,153.433303833008,0.995852137364569,121.094680786133,1.00002581482597,109.472030639648,1.00584328764922,130.430236816406,1,69970,0.00358818676053185,-0.00654128408434306,-0.00743093643536652,-0.00285002545414478,-0.00721544944590115,103,0.894317090511322,0.775789624124625,0.417264541946548,0.897189311176078,0.357276767492294,0.0464045750628302,0.244904959268258,0.650293457296354,-0.00208983758693978,-0.00326639018324883,-0.00164609473647603,0.817596055136158,3.22842153564043,61
166,5.5002994011976,153.396118164062,0.995610785409202,121.144386291504,1.00043629353723,109.459518432617,1.00572832386,131.017532348633,1,70476,0.00174452090475496,-0.0066049845117271,-0.00752292864155648,-0.00279841271859689,-0.00733993253263391,103,0.864500522613525,0.777654804472445,0.420838299562972,0.903480546118839,0.355947405099869,0.0406384206140632,0.240379703728929,0.643229884995406,-0.00212096422909526,-0.00325221482086975,-0.00156746660943677,0.817596055136158,3.22842153564043,61
167,5.53363454908365,153.204055786133,0.994364212958564,121.129692077637,1.00031494557132,109.666282653809,1.00762810047688,131.849075317383,1,70042,0.00493083201778521,-0.00644753657212091,-0.00729142634727449,-0.00243587951180032,-0.00712938556521685,103,0.838784456253052,0.779575112075612,0.426986665143771,0.898481194519986,0.353408247232437,0.0468982502950382,0.236286799348962,0.635364776300972,-0.00207316855855169,-0.003111356951816,-0.00154494181202567,0.817596055136158,3.22842153564043,61
168,5.5669696969697,153.229354858398,0.994528415478876,121.196479797363,1.00086649286809,109.574150085449,1.00678157442893,132.063873291016,1,70410,0.00147437360909775,-0.00607968105251966,-0.00682863815064703,-0.00177672913162543,-0.00666686926079639,103,0.81387585401535,0.783326232069308,0.437650901860531,0.90309754376964,0.351471036672592,0.0420701596870391,0.229924726601335,0.62938792968804,-0.00190434461028033,-0.00280882828030862,-0.0014524923525154,0.817596055136158,3.22842153564043,61
169,5.60030484485574,153.242263793945,0.994612200359565,121.213485717773,1.00100693140184,109.544258117676,1.00650692313249,132.494812011719,1,70516,0.000515561653840813,-0.00546896268472113,-0.00618727491020126,-0.000873223427756089,-0.00601180467773658,103,0.788356900215149,0.786757615292983,0.446919847977764,0.90117445590359,0.350179702043533,0.0453168730590806,0.224417153553803,0.622073479133692,-0.00156109826861355,-0.0023008793655138,-0.0011430085539884,0.817596055136158,3.22842153564043,61
170,5.63363999274179,153.137786865234,0.993934097430391,121.181053161621,1.00073909640544,109.681137084961,1.00776458492665,132.683059692383,1,71034,0.00339757134016722,-0.00456694672399003,-0.00535894320283867,0.000187496618882939,-0.00517489213674046,103,0.765258073806763,0.78820940207037,0.453191429456317,0.906230863441519,0.349031507968903,0.0410798122065728,0.219303432159248,0.616244315344563,-0.00100656421402936,-0.00156219519806573,-0.00051682911087867,0.817596055136158,3.22842153564043,61
171,5.66697514062784,153.312637329102,0.995068956706776,121.09294128418,1.0000114496462,109.594429016113,1.00696789988732,133.326049804688,1,70956,0.00527073611801471,-0.00335676405817408,-0.00429958484497546,0.00129415621904158,-0.00412943808178803,103,0.962083458900452,0.792387770825112,0.460863070071594,0.905836695092682,0.346569299697876,0.0438773425930654,0.3869581148881,0.699369667052865,-0.000246421889766079,-0.000610896331042207,0.000426138094289191,0.817596055136158,3.22842153564043,61
172,5.70031028851388,153.236968994141,0.994577834693372,121.116455078125,1.00020563159373,109.646553039551,1.00744682220924,133.274993896484,1,70888,0.00515425861607993,-0.00189155607771367,-0.00298666387839659,0.00232455486333768,-0.00285870300572179,103,0.962321698665619,0.793951961780085,0.467060715494865,0.902709861450693,0.344134420156479,0.0459071923390383,0.368228755219501,0.695671417292076,0.000656713422185285,0.000478215019442428,0.0015718050243942,0.817596055136158,3.22842153564043,61
173,5.73364543639993,153.305282592773,0.995021221112813,120.999618530273,0.999240770352852,109.69506072998,1.00789251719209,133.184524536133,1,70651,0.00975584746162156,-0.000304276413396816,-0.00147510243787793,0.00316132806445331,-0.00140828126802253,103,0.950620830059052,0.797587200936057,0.477233160181738,0.895200324370898,0.344576567411423,0.0512151237931122,0.350568286365373,0.689091885168151,0.00158656322056599,0.00157810191462073,0.00271733083987405,0.817596055136158,3.22842153564043,61
174,5.76698058428597,153.381591796875,0.995516502659301,121.010780334473,0.99933294692301,109.607643127441,1.00708931286472,132.82145690918,1,70941,0.0082496237309832,0.00121290646150226,8.08282412314767e-05,0.00370467844979742,8.4867156237559e-05,103,0.931081354618073,0.800435103348792,0.484402531681256,0.898385360602799,0.344444513320923,0.0460583802950674,0.335461862674617,0.682580391011989,0.0023943535333869,0.00253159682441754,0.00362792627745786,0.817596055136158,3.22842153564043,61
175,5.80031573217202,153.386260986328,0.995546807828912,120.983093261719,0.999104301145086,109.630661010742,1.00730080417696,132.626922607422,1,71219,0.00949413801622351,0.00245002687795535,0.00145598186451631,0.00388795650427009,0.0014146131383331,103,0.912067532539368,0.801892753338295,0.489125093022929,0.898356395928201,0.344505816698074,0.0465204283714066,0.32510987236552,0.67597413973618,0.00293235345503902,0.00318559646845726,0.0041054880348474,0.817596055136158,3.22842153564043,61
176,5.83365088005807,153.452911376953,0.995979399269636,120.964012145996,0.998946725203893,109.583084106445,1.00686366137843,132.33528137207,1,71333,0.00953094920734049,0.00323008388248789,0.00242515117155394,0.00368342610943946,0.00236580228251885,103,0.895452260971069,0.804157963354969,0.494651844167496,0.896278333417098,0.343434035778046,0.0471176559280293,0.318604292543423,0.670876691473961,0.0030901767093839,0.00342754861045154,0.00404357732015756,0.817596055136158,3.22842153564043,61
177,5.86698602794411,153.420333862305,0.995767956337872,120.883277893066,0.998280004448314,109.696418762207,1.00790499496921,132.390625,1,70809,0.0137477894426661,0.0034584889040889,0.00284698883757565,0.00310896438470035,0.0027968104233739,103,0.882197082042694,0.805843889901001,0.50095326865229,0.892070651078412,0.344325125217438,0.0497631525902036,0.313773672838199,0.666510678644081,0.00282333944869408,0.00321385854465047,0.00345168064175392,0.817596055136158,3.22842153564043,61
178,5.90032117583016,153.384414672852,0.995534824412171,120.95832824707,0.998899786348959,109.657257080078,1.00754517232893,132.158233642578,1,71587,0.0106978442965475,0.00315769721583798,0.00272327692121778,0.00222331264573973,0.00269537784031194,103,0.865285873413086,0.807665265108656,0.505594591196726,0.899628019202252,0.344087779521942,0.042928594767135,0.308114601813178,0.662608866574897,0.00216583455197992,0.00258198854135283,0.00244451561774002,0.817596055136158,3.22842153564043,61
179,5.9336563237162,153.37321472168,0.995462131619705,120.97265625,0.999018110066497,109.654144287109,1.00751657158136,132.248382568359,1,71459,0.0101771783541412,0.00247058493082328,0.00220471950462858,0.00112195431281051,0.00219157550703139,103,0.84630811214447,0.809102655602047,0.509285044571013,0.898934497377127,0.342764139175415,0.0459914709471274,0.301921381491485,0.656423200103283,0.0012233709052026,0.00164307513781304,0.00120301858906213,0.817596055136158,3.22842153564043,61
180,5.96699147160225,153.405670166016,0.995672782259453,120.985527038574,0.999124399795722,109.608818054199,1.00710010824492,132.504318237305,1,70963,0.00915846077798665,0.00162305705866639,0.00153811030202884,-7.74456339492469e-05,0.00151135033982325,103,0.828801870346069,0.812836736515273,0.519792004283923,0.895488674364313,0.342594385147095,0.0452899236544892,0.295463833265223,0.651614193757898,0.000149622140974095,0.000557430246409754,-7.81311391054075e-05,0.817596055136158,3.22842153564043,61
181,6.0003266194883,153.64485168457,0.997225179428258,120.933464050293,0.998694452485566,109.421699523926,1.0053808387971,132.670303344727,1,71814,0.00850544592984692,0.00085479263847148,0.000977368938826788,-0.00124772177413506,0.000900260507860212,103,0.95977783203125,0.81459975306579,0.526596485364971,0.904242057945832,0.340281903743744,0.0478978581951422,0.465898014314758,0.718380354172699,-0.00088733886928371,-0.000499743047585335,-0.00123637649232617,0.817596055136158,3.22842153564043,61
182,6.03366176737434,153.633346557617,0.997150505905752,120.976356506348,0.999048667576084,109.390281677246,1.00509216752636,132.890182495117,1,71987,0.00664767969838898,0.00034540086656655,0.000698214417948377,-0.00226882488227988,0.000543780921948603,103,0.960190296173096,0.816753950944847,0.531151457902121,0.90846794548208,0.338002175092697,0.0424533064109036,0.444302443496742,0.715466323905847,-0.00173897266111003,-0.00137299166537646,-0.00216629429240707,0.817596055136158,3.22842153564043,61
183,6.06699691526039,153.576568603516,0.996781991081821,120.979850769043,0.999077523945963,109.443565368652,1.00558174502875,133.25048828125,1,71719,0.00722608523206547,0.000168268234163432,0.000753581166333654,-0.00304091389678204,0.000521834280953772,103,0.94885116815567,0.82070766928336,0.53731925988929,0.907203845424072,0.335761189460754,0.0410473720827272,0.424978039292238,0.709782354220801,-0.00230184640115454,-0.00195276780099375,-0.00282089909482873,0.817596055136158,3.22842153564043,61
184,6.10033206314643,153.627517700195,0.997112673961989,120.971954345703,0.999012313590451,109.400520324707,1.00518624155388,133.346435546875,1,71567,0.00694204011983501,0.000291806646734446,0.00108547673970716,-0.00349595355138498,0.000807147329710767,103,0.932698011398315,0.823368312210935,0.5459080302374,0.903555286215691,0.334353655576706,0.0392394515567002,0.410370701580337,0.703643993358761,-0.0025295644822283,-0.00218785748879741,-0.00319442967579033,0.817596055136158,3.22842153564043,61
185,6.13366721103248,153.725936889648,0.997751459399871,120.883880615234,0.998284981857092,109.390167236328,1.00509111602828,133.354431152344,1,70780,0.00980386469661731,0.000623608045215207,0.00158027560324742,-0.00360192112808843,0.00130516757396916,103,0.912079572677612,0.829937835546765,0.559183385137044,0.897346501515017,0.334127455949783,0.0462365455075624,0.39988697372139,0.696587007741824,-0.0024304323759519,-0.00208342445071109,-0.00329868373966983,0.817596055136158,3.22842153564043,61
186,6.16700235891853,153.718490600586,0.997703129586896,120.961883544922,0.998929146760233,109.319633483887,1.00444304271649,133.533660888672,1,70911,0.00624716402372028,0.00107029254130697,0.00213394891390065,-0.0033659848225461,0.00190479004987946,103,0.892097115516663,0.83273869122327,0.565807843634979,0.902508559137595,0.33230721950531,0.0405747667714551,0.391236902596212,0.691327434959629,-0.00205448516244236,-0.00168830939426123,-0.00314513274293927,0.817596055136158,3.22842153564043,61
187,6.20033750680457,153.67463684082,0.997418498680156,120.95093536377,0.998838734334959,109.374397277832,1.00494621959394,133.622909545898,1,71046,0.00733485193382244,0.00157898133646181,0.00269247125705712,-0.00282767867258632,0.00252250299691276,103,0.86890834569931,0.83622347962353,0.577513160487571,0.903134772328579,0.331243306398392,0.0431571453995373,0.380964445570475,0.683759528199703,-0.00147588154763277,-0.00107752769292876,-0.00274116335027303,0.817596055136158,3.22842153564043,61
188,6.23367265469062,153.653945922852,0.997284205183448,120.95622253418,0.998882396920823,109.38981628418,1.0050878914342,133.793731689453,1,71220,0.00736144456412968,0.00214027857817827,0.00325051288749251,-0.00205459766063398,0.0031136282632474,103,0.846365749835968,0.839665824206683,0.588472339230553,0.907897252852317,0.330267429351807,0.0431894958251004,0.371173827576523,0.676849048483617,-0.000776637927364904,-0.000336046610781675,-0.00210152778896483,0.817596055136158,3.22842153564043,61
189,6.26700780257667,153.717391967773,0.997695998958752,120.891090393066,0.998344521746907,109.391494750977,1.00510331340592,133.946380615234,1,71382,0.00960043330333699,0.00275719672145141,0.00381709776190715,-0.00113016201237866,0.00366317069607542,103,0.825073480606079,0.844806814042756,0.605166568602729,0.908387523701658,0.329966008663177,0.0438910169124852,0.361996021405957,0.670606374535265,-3.54417024616532e-05,0.000452590180100338,-0.00126602738802601,0.817596055136158,3.22842153564043,61
190,6.30034295046271,153.791534423828,0.998177217321956,120.952667236328,0.998853036509549,109.25577545166,1.00385630679223,133.808792114258,1,71770,0.00575591919104618,0.00340342677008374,0.00437485486636394,-0.000146670768640943,0.00415827773568112,103,0.800333082675934,0.84963076494357,0.61655287724676,0.913057859650908,0.328808933496475,0.0441835021118518,0.350327434861363,0.663005550292074,0.000677718729426846,0.0012119689924985,-0.000311521281509525,0.817596055136158,3.22842153564043,61
191,6.33367809834876,153.848541259766,0.998547217693418,120.911781311035,0.9985153917799,109.23966217041,1.00370825586367,134.732650756836,1,71309,0.00694111837230266,0.00399903387348365,0.00486026231106751,0.000806324016644494,0.00457055067508167,103,0.961956918239594,0.855773231055454,0.629962557320955,0.911110827179107,0.326327264308929,0.0481435105920834,0.370668499067439,0.708074613889744,0.00130301877516048,0.00187481548550646,0.000649840961739662,0.817596055136158,3.22842153564043,61
192,6.3670132462348,153.89924621582,0.998876315989554,120.858299255371,0.998073725507304,109.242469787598,1.00373405261638,134.591110229492,1,70965,0.00879946212156307,0.00442185025455039,0.00517694549089735,0.00164663754508294,0.00484846882243404,103,0.964444756507874,0.861856783860589,0.643190305079969,0.906982094244853,0.324561536312103,0.0521708012218345,0.359571619812584,0.707049541666109,0.00179130103604401,0.00238418247598703,0.00148854932517638,0.817596055136158,3.22842153564043,61
193,6.40034839412085,154.015640258789,0.999631766426788,120.809211730957,0.997668350215166,109.175132751465,1.00311535115073,134.211975097656,1,70444,0.00959859472689079,0.00455186061657859,0.00523258133901085,0.00230669435277102,0.00492963781139114,103,0.963422536849976,0.861445498078852,0.648202827778093,0.900323351609729,0.323966234922409,0.0615646128088136,0.357589006870706,0.704812197152995,0.00210588722593885,0.00269617960455104,0.00208869846549897,0.817596055136158,3.22842153564043,61
194,6.4336835420069,154.448501586914,1.00244123391544,120.797462463379,0.997571322246579,108.754058837891,0.999246469144079,133.814163208008,1,69829,0.00454318978570295,0.00432338035305504,0.00497550707070818,0.00273532777651694,0.00475604859876551,103,0.952836811542511,0.869715065851342,0.664637901158544,0.89031262749898,0.3230220079422,0.0694869441044472,0.345214738862077,0.7000772527716,0.00222594269660267,0.00278422779267715,0.00238107190174159,0.817596055136158,3.22842153564043,61
195,6.46701868989294,154.399307250977,1.002121940233,120.764144897461,0.997296178649942,108.836578369141,1.00000466935397,133.839111328125,1,69361,0.00675053277961263,0.00375206675621893,0.00440886495581793,0.00290269329891382,0.00429251778100107,103,0.951488494873047,0.868019011644392,0.66334107063047,0.884345675234598,0.323317617177963,0.0775448796409629,0.344977725234642,0.698064290351515,0.00214976549242948,0.00264321355807729,0.00236240569318405,0.817596055136158,3.22842153564043,61
196,6.50035383777899,154.48551940918,1.00268149646929,120.790252685547,0.997511782356764,108.724243164062,0.99897251884635,133.690811157227,1,69575,0.00441334437767288,0.00291931155573376,0.0035766563189734,0.00279883790496149,0.0035336097384808,103,0.952152132987976,0.869157982991975,0.665684513115343,0.887074153406773,0.322596490383148,0.074969400244798,0.344764642472152,0.698827454300652,0.00189538941114191,0.00229059708972108,0.00209258981262238,0.817596055136158,3.22842153564043,61
197,6.53368898566503,154.685684204102,1.00398065730249,120.857597351074,0.998067929031258,108.45671081543,0.996514396753163,133.42236328125,1,69256,-0.00133650044981987,0.00192513182441117,0.00253563133234126,0.00243708763865589,0.00250831671032696,103,0.953081011772156,0.870206191521312,0.665963959801317,0.883006935944512,0.322305917739868,0.0808981028151775,0.344258981171306,0.698219591031134,0.00149680625118783,0.00176293023565348,0.0016722356561992,0.817596055136158,3.22842153564043,61
198,6.56702413355108,154.704376220703,1.00410197701743,120.831893920898,0.997855664598679,108.463729858398,0.996578888634921,133.532592773438,1,69783,-0.000366760303444236,0.000842129292051165,0.00133553673730868,0.00185347046928107,0.00127829117817643,103,0.953703820705414,0.868583083750102,0.661192554060445,0.889726132190942,0.322207033634186,0.0702901876784986,0.34686098333405,0.700268338564624,0.00099607129141472,0.00110776563250214,0.00120575711197064,0.817596055136158,3.22842153564043,61
199,6.60035928143713,154.589477539062,1.0033562321574,120.843421936035,0.997950865417209,108.567092895508,0.997528601693682,133.595932006836,1,70258,0.000588292667405677,-0.000297929672367865,2.17072233755354e-05,0.00110438572011762,-6.68759416383898e-05,103,0.949136018753052,0.963145359484566,0.927182669589228,0.89578233374133,0.32237383723259,0.0689514483884129,0.345853852942014,0.718051615431433,0.000434059651433708,0.000373829998802236,0.000763948048084046,0.817596055136158,3.22842153564043,61
200,6.63369442932317,154.591125488281,1.00336692809961,120.884315490723,0.998288573152033,108.524566650391,0.997137865010073,133.381500244141,1,70431,-0.0013453903342372,-0.00147839662396863,-0.00134558517362673,0.000264691478504038,-0.00141888040793223,103,0.955110967159271,0.961981703132617,0.924351492950547,0.897393099230416,0.323125809431076,0.0668034249018908,0.351492950547344,0.720784124541507,-0.000156012123413752,-0.000396277407594099,0.000364703547358797,0.817596055136158,3.22842153564043,61
201,6.66702957720922,154.530654907227,1.0029744464422,120.973052978516,0.999021386335566,108.496269226074,0.996877864586767,133.238647460938,1,69956,-0.00471912177352696,-0.00265804245822086,-0.00267629785919199,-0.000578950520430308,-0.00266942929938893,103,0.948752820491791,0.957211199420588,0.9183915604094,0.891340910249223,0.325643420219421,0.0743081392385709,0.33332380353365,0.713405903435624,-0.00074886820215265,-0.00116726543380919,-2.1085288615175e-05,0.817596055136158,3.22842153564043,61
202,6.70036472509526,154.436325073242,1.00236220278685,121.059036254883,0.999731454651137,108.50463104248,0.996954694045905,132.429443359375,1,71739,-0.007523667829057,-0.00375367899301854,-0.00386005359499876,-0.00133658603734399,-0.00373326241333181,103,0.945867478847504,0.954102138771565,0.912418628639931,0.908134589093119,0.329959571361542,0.061787938629804,0.318432094118959,0.711087646109212,-0.00132054807877365,-0.00190540051506641,-0.00044127180911853,0.817596055136158,3.22842153564043,61
203,6.73369987298131,154.434722900391,1.00235180395414,121.072357177734,0.999841461685653,108.492950439453,0.996847371142675,131.951553344727,1,72170,-0.00812111419755479,-0.00466115736234622,-0.00480044071738285,-0.00192514294900605,-0.0045671866281965,103,0.937795519828796,0.95448247194125,0.912262713038659,0.911467542308664,0.330166667699814,0.0597499368527406,0.303907440764861,0.706566872601983,-0.00183783647225227,-0.00256858721962854,-0.000922714055284373,0.817596055136158,3.22842153564043,61
204,6.76703502086736,154.374282836914,1.00195952036973,121.121978759766,1.00025124734,108.503746032715,0.996946562460814,131.805694580078,1,72390,-0.00965985544236425,-0.00529763494773301,-0.00545237000225632,-0.00228013286566985,-0.00517362154508524,103,0.919491291046143,0.953184141456002,0.909006768890731,0.913300194292347,0.331075042486191,0.0585652645656178,0.292623290509739,0.699663866824185,-0.00224978884056945,-0.0030984282671627,-0.00143745035825046,0.817596055136158,3.22842153564043,61
205,6.8003701687534,154.483276367188,1.00266693810349,121.113395690918,1.00018036651879,108.403327941895,0.996023907952443,131.597183227539,1,71545,-0.0106647054373512,-0.00563084624642597,-0.00583334652375152,-0.00236513017323686,-0.00558088507486021,103,0.905474901199341,0.954615975959186,0.913536934796282,0.906619864662797,0.329523324966431,0.0664647591048483,0.281109791040604,0.692879517243018,-0.00248789906417285,-0.00342066547282218,-0.00189175850853791,0.817596055136158,3.22842153564043,61
206,6.83370531663945,154.654174804688,1.00377614692586,120.982444763184,0.999098945705261,108.363372802734,0.995656794925522,131.211853027344,1,71436,-0.00673109176426434,-0.0056726880160686,-0.00599492281494471,-0.00217776326969085,-0.0058065198594356,103,0.900196254253387,0.838363476865073,0.58061761576796,0.904539411206078,0.332171499729156,0.0538524849635961,0.27862702278963,0.669830765900112,-0.00247893283399106,-0.00345823219198362,-0.0021479231758247,0.817596055136158,3.22842153564043,61
207,6.86704046452549,154.340774536133,1.00174203621134,121.147750854492,1.00046407881915,108.51146697998,0.997017503530748,131.008499145508,1,72610,-0.0104166518987825,-0.0054440310342464,-0.0059694804665965,-0.00175320763796988,-0.00582738687643403,103,0.867039144039154,0.952518018638388,0.907753752926594,0.920944154839364,0.333310335874557,0.0551983054931953,0.266106596887481,0.681652980236051,-0.00216909989252899,-0.00315558651185651,-0.00207231359569029,0.817596055136158,3.22842153564043,61
208,6.90037561241154,154.372024536133,1.00194486296743,121.082931518555,0.999928786857382,108.545051574707,0.997326083164987,130.424026489258,1,72786,-0.00777438003073472,-0.00494208937898838,-0.00572961736939732,-0.00115616281588376,-0.00557182617913117,103,0.850626528263092,0.951703166359831,0.908045503256121,0.923422394762883,0.335684269666672,0.0538808961964934,0.258030390459704,0.675982400038241,-0.00155227632511597,-0.00250700408067527,-0.00159297349709798,0.817596055136158,3.22842153564043,61
209,6.93371076029759,154.440765380859,1.00239102240893,121.078392028809,0.999891298778609,108.480834960938,0.996736052546771,130.121353149414,1,72568,-0.00844708759288521,-0.00414211615843151,-0.00519540648656451,-0.000475160142604212,-0.00495817591674362,103,0.832102537155151,0.953404622790578,0.911434792194907,0.920761803255808,0.335924386978149,0.0570210498268052,0.245852166244075,0.66875362412343,-0.000691016764209344,-0.00157764695105539,-0.000745481887892516,0.817596055136158,3.22842153564043,61
210,6.96704590818363,154.227478027344,1.00100669018401,121.113052368164,1.00017753128594,108.659461975098,0.998377300837645,129.647338867188,1,72984,-0.00730129014145292,-0.00304066003566653,-0.00429662694345955,0.000195004282580572,-0.00395587867667034,103,0.811791479587555,0.949778946983814,0.903759728159597,0.924948673104707,0.339026868343353,0.0514536283679315,0.234544557711279,0.661579990297038,0.000280830729456612,-0.000506056313750716,0.00031570049310741,0.817596055136158,3.22842153564043,61
211,7.00038105606968,154.529708862305,1.00296830617907,121.007553100586,0.999306295734236,108.462730407715,0.996569705551758,130.957366943359,1,70975,-0.00626481557222619,-0.00171509425978137,-0.00305873250732539,0.000766271027424006,-0.00264964032587934,103,0.963246524333954,0.818043912175649,0.532215568862276,0.899385414686688,0.332204580307007,0.0429195970347843,0.270560056357873,0.681665289264627,0.00117999851160594,0.000518022303442326,0.00134895268980239,0.817596055136158,3.22842153564043,61
212,7.03371620395573,154.48860168457,1.00270150184269,120.975608825684,0.999042493068992,108.535804748535,0.997241122120757,129.942459106445,1,71453,-0.00422649034746297,-0.000355610812172722,-0.00165737827583849,0.00117258526098793,-0.00125666470751484,103,0.949478030204773,0.811087941257423,0.524260702839629,0.904972389685394,0.337425827980042,0.0429986321495517,0.255258701524079,0.673759054963565,0.001817621195071,0.00129797032935697,0.00209305965849163,0.817596055136158,3.22842153564043,61
213,7.06705135184177,154.546844482422,1.00307952417081,120.925506591797,0.998628738088659,108.527641296387,0.997166115258278,129.127426147461,1,71513,-0.00262548853730066,0.00076549717526379,-0.000394637198640219,0.00137886574566557,-7.86627539716646e-05,103,0.928340256214142,0.813274043414018,0.51899654608253,0.901166893492616,0.341541767120361,0.0487549775694339,0.236404569798498,0.664219990284929,0.0020532812802902,0.00168506515593339,0.00235007495945488,0.817596055136158,3.22842153564043,61
214,7.10038649972782,154.29899597168,1.00147087426888,120.933876037598,0.998697854764984,108.767135620117,0.999366620323789,128.969818115234,1,71655,0.000202311126377086,0.0013891613760807,0.000410030770111924,0.00138523649377076,0.000607681077411692,103,0.909689009189606,0.809168934477706,0.50709650408206,0.901865277148467,0.344788819551468,0.0467074460051352,0.222245481822622,0.656231944196645,0.00184151834712272,0.00162566292351077,0.00205374956898119,0.817596055136158,3.22842153564043,61
215,7.13372164761386,154.475799560547,1.00261841021752,120.89094543457,0.998343324648593,108.633224487305,0.998136227379638,128.315505981445,1,71581,-7.09739414161414e-05,0.0013909123959586,0.000569905655493866,0.0012228283597096,0.00067459038007053,103,0.891360700130463,0.809525805264898,0.504491415319708,0.904988874279357,0.345278710126877,0.0429604531202589,0.21015353236194,0.649902370058742,0.00125331288169036,0.00118335958698463,0.00129797920770265,0.817596055136158,3.22842153564043,61
216,7.16705679549991,154.667221069336,1.00386082313507,120.858711242676,0.998077127786722,108.474067687988,0.996673873960771,127.311233520508,1,71350,-0.00103437597083184,0.000865950745739321,0.000145491556098994,0.000945470780471315,0.000222907551425733,103,0.877074837684631,0.809138051857043,0.500448493342677,0.899475568554284,0.343840360641479,0.0436185769754425,0.200462508759636,0.644209849228423,0.000462009250577557,0.000525444353267371,0.000312644173580689,0.817596055136158,3.22842153564043,61
217,7.20039194338596,154.8955078125,1.00534250824145,120.759925842285,0.997261336788494,108.344551086426,0.99548385854259,126.508094787598,1,70465,0.000645727689173203,0.000124470915663784,-0.000545794609201953,0.000616801734586079,-0.000432208517045807,103,0.865490853786469,0.810331370183779,0.499865181295679,0.89166856477615,0.34316486120224,0.0509326044592919,0.190051798765345,0.638300130522955,-0.00030495539592775,-0.000125097286097754,-0.000608393148159404,0.817596055136158,3.22842153564043,61
218,7.233727091272,155.038818359375,1.00627265906821,120.702079772949,0.996783631556137,108.25910949707,0.994698810081928,125.618431091309,1,70012,0.00150775101255896,-0.000416816524691254,-0.00104604054967251,0.000296975840922005,-0.00087485877478443,103,0.856357336044312,0.810299186806071,0.495772153345141,0.8852529492837,0.342833638191223,0.0505772124369365,0.182483002913786,0.63455341796514,-0.000834535051549463,-0.000558041356003478,-0.00120314274929642,0.817596055136158,3.22842153564043,61
219,7.26706223915805,155.095504760742,1.00664057967313,120.748382568359,0.997166009959616,108.156097412109,0.993752321617255,124.962364196777,1,69943,-0.00139419679294372,-0.000409340177038885,-0.000955520337289466,3.18492046803314e-05,-0.000759692377667434,103,0.845680356025696,0.811270129486391,0.493001444032998,0.884436407779267,0.341835230588913,0.0500366707974002,0.17464220865562,0.630596689307242,-0.000994348751962845,-0.000642313485198263,-0.00132654975892659,0.817596055136158,3.22842153564043,61
220,7.30039738704409,155.292282104492,1.00791775440288,120.746520996094,0.99715063669706,107.96118927002,0.991961480200651,124.377624511719,1,69623,-0.00385251261406383,0.000264387255693552,-0.000121678430243548,-0.000153772258968003,3.26233245939539e-05,103,0.834225475788116,0.811149572219908,0.490958447639429,0.883462128998693,0.338623940944672,0.0476226731127945,0.165476925728567,0.626262040838677,-0.000773710678720422,-0.000367253138368502,-0.000995214972344045,0.817596055136158,3.22842153564043,61
221,7.33373253493014,154.013519287109,0.999618000353011,120.859848022461,0.998086515557708,109.126617431641,1.00266958606801,128.146011352539,1,71374,0.00741953557210129,0.00142382451746408,0.0012767515367259,-0.00025514635638037,0.00133351963823907,103,0.956859707832336,0.798498052512119,0.473561801216129,0.903845910316968,0.347417861223221,0.0523509820557955,0.277117717936503,0.675961923918881,-0.000284295265721019,0.000156443047646706,-0.000377973996118948,0.817596055136158,3.22842153564043,61
222,7.36706768281619,153.804458618164,0.998261101239148,120.928749084473,0.998655515287782,109.266777038574,1.0039573908069,127.837631225586,1,72045,0.00690401363687609,0.00266307802185131,0.00279817268870488,-0.0002875589543153,0.00274377009575975,103,0.944063484668732,0.799338376477664,0.469470469845236,0.914717757294127,0.350339353084564,0.0477514537467307,0.266972031369283,0.671637720137096,0.000280715032898976,0.000737294198545073,0.000267390786461242,0.817596055136158,3.22842153564043,61
223,7.40040283070223,153.653518676758,0.997281432161392,120.92113494873,0.998592636123723,109.425384521484,1.00541469703502,127.747062683105,1,71718,0.00922572843215763,0.0035330278728671,0.00393099999912312,-0.000273062321047406,0.00380213223261268,103,0.926424503326416,0.799585413238889,0.467734738838228,0.911051829268293,0.352523267269135,0.0564659552845528,0.251986948883126,0.662886045410478,0.000715208337445436,0.00117150756641699,0.000689883232815449,0.817596055136158,3.22842153564043,61
224,7.43373797858828,153.566925048828,0.996719400012558,120.974296569824,0.999031656178994,109.458778381348,1.00572152417247,127.436347961426,1,72208,0.00785976969706259,0.00374105039771156,0.00431951666694755,-0.000237800383096938,0.00417534301207222,103,0.909110426902771,0.813044722653076,0.50702138267228,0.916449848332931,0.353218138217926,0.0509702884847254,0.235514070463107,0.658834119191373,0.000872198523997793,0.00131486133902272,0.000734588669506012,0.817596055136158,3.22842153564043,61
225,7.46707312647432,153.577514648438,0.996788131344944,120.960311889648,0.998916167694305,109.462181091309,1.00575278871515,127.254669189453,1,71226,0.00838476290594847,0.0032695588337244,0.00391530463881132,-0.000201175673161177,0.00380084750102431,103,0.895774841308594,0.851028182592499,0.616895515682475,0.908066346239657,0.352901816368103,0.0598824534339661,0.22236262039143,0.6590406783745,0.00071361738074205,0.00113236056007174,0.000395115811305434,0.817596055136158,3.22842153564043,61
226,7.50040827436037,153.566909790039,0.996719300976056,120.959838867188,0.998912261373492,109.473220825195,1.00585422322917,126.943580627441,1,71685,0.00854979924707466,0.00236371193524472,0.00298584963380814,-0.000174433855120855,0.00290555687643931,103,0.881713151931763,0.813252423798563,0.503606054265188,0.912615055570408,0.354338675737381,0.0531006123566182,0.212275929413406,0.647037860648276,0.000319998678109977,0.000707752769053162,-0.000188511125525856,0.817596055136158,3.22842153564043,61
227,7.53374342224642,153.527862548828,0.996465866567446,121.019248962402,0.999402882666603,109.452911376953,1.00566761737131,126.359092712402,1,71851,0.00627582468008392,0.00140733617420637,0.0019828536203115,-0.000160327915726864,0.00190238718470265,103,0.879536211490631,0.798662045993329,0.453285270907851,0.914728386102942,0.358212202787399,0.0546410520821398,0.211047862938581,0.643083466325897,-0.000143104410685131,0.000209788990360346,-0.000785467315416225,0.817596055136158,3.22842153564043,61
228,7.56707857013246,153.69270324707,0.997535757898521,120.923469543457,0.998611915707092,109.383827209473,1.00503286303509,126.851806640625,1,70836,0.00863752853749872,0.000754500680988286,0.00133789890219417,-0.000155383105318144,0.00121025832660997,103,0.860609114170074,0.796506484461761,0.452608842961206,0.907525559228227,0.351259648799896,0.0530145796499859,0.194590321305551,0.634889306951983,-0.000489254511183547,-0.00017213805069009,-0.00116228428417845,0.817596055136158,3.22842153564043,61
229,7.60041371801851,153.780395507812,0.998104920675498,120.856185913086,0.998056273073993,109.363426208496,1.00484541597876,126.239379882812,1,70235,0.0106633216038622,0.000593073245003756,0.00128128692264626,-0.000155418085864955,0.0010781350383343,103,0.86134147644043,0.798149070976009,0.444151776179967,0.89982576165219,0.352688431739807,0.0624823839905706,0.194646543745996,0.633897310616017,-0.0005818823768575,-0.000298946205188115,-0.0011711629834115,0.817596055136158,3.22842153564043,61
230,7.63374886590455,154.068756103516,0.99997651249024,120.851531982422,0.998017839917604,109.079719543457,1.00223868215804,126.040534973145,1,70108,0.00714820427854695,0.000890357649418584,0.00176129730067954,-0.000159160906286203,0.00148997133385519,103,0.848282933235168,0.792510602689184,0.443601300850117,0.901965829559489,0.348703384399414,0.0519632564841499,0.179023791863981,0.628063491181961,-0.000385532130088168,-0.000133293202236792,-0.000803409544621993,0.817596055136158,3.22842153564043,61
231,7.6670840137906,153.289260864258,0.994917232785716,120.97681427002,0.999052447886549,109.733963012695,1.00824995643675,128.81559753418,1,70177,0.011385466995651,0.00142943186727558,0.00248946506980729,-0.000168435114011166,0.00218846118620081,103,0.948035538196564,0.858191905230109,0.648560069538453,0.902853540551667,0.352111548185349,0.0560544462741869,0.370662752753751,0.703811104742043,2.10814577780606e-05,0.000247317880908217,-0.000190863704839058,0.817596055136158,3.22842153564043,61
232,7.70041916167665,153.347122192383,0.99529277920129,120.949913024902,0.998830291641588,109.702926635742,1.00796479015958,128.436340332031,1,70579,0.0119018560081897,0.00190933477910497,0.00308020803987848,-0.000190186849124678,0.00279531002473291,103,0.940210044384003,0.8630423591531,0.65792941243146,0.911649595060644,0.35222464799881,0.0577506813572896,0.340327859561626,0.69648644582178,0.000474521009723988,0.000679950735563789,0.000443513971423883,0.817596055136158,3.22842153564043,61
233,7.73375430956269,153.195663452148,0.994309742882466,121.016120910645,0.999377050545096,109.788200378418,1.00874829642307,128.620758056641,1,70856,0.0107661353239334,0.00206396314742028,0.00321645590539953,-0.000230078651722915,0.00297696882832537,103,0.929922342300415,0.846867825825148,0.614767980128712,0.913799329378385,0.352949917316437,0.0585633221563064,0.326690753076663,0.687822169810457,0.000787326820551321,0.000977046711203598,0.000869622873401083,0.817596055136158,3.22842153564043,61
234,7.76708945744874,153.243041992188,0.994617251221167,120.978187561035,0.999063788817942,109.778785705566,1.00866179318167,128.610198974609,1,71101,0.0119381021186418,0.00175509978070533,0.00277023914017321,-0.00028913759050604,0.00257649035854376,103,0.918583989143372,0.804962893161371,0.485450274960971,0.917361236549428,0.353716403245926,0.0529507392976028,0.315452665925936,0.675256990815688,0.000817439446188421,0.000995955676531786,0.000934959084997295,0.817596055136158,3.22842153564043,61
235,7.80042460533479,153.202484130859,0.994354012198859,121.050064086914,0.999657360566034,109.747459411621,1.00837396310939,127.971122741699,1,71171,0.00909765697358761,0.00101128055369524,0.00183517599233029,-0.000360448104130799,0.00166344763422307,103,0.915854871273041,0.78179782964035,0.408171867755125,0.918264392434134,0.35877138376236,0.0555698913632493,0.317671523513791,0.669966405830968,0.000521159762783346,0.00069200559079979,0.000619279267533381,0.817596055136158,3.22842153564043,61
236,7.83375975322083,153.422149658203,0.99577974168161,120.980712890625,0.999084643530671,109.597129821777,1.00699271524182,128.475341796875,1,70357,0.00950856751553292,7.90148444287596e-06,0.000669950602068272,-0.000425666040605008,0.000490580835097467,103,0.900312721729279,0.779415457357951,0.411416063788962,0.911430940228515,0.356606930494308,0.0553799518097261,0.295322427050613,0.661164965024476,-2.90331566974173e-05,0.000136405514052033,4.14883110841947e-05,0.817596055136158,3.22842153564043,61
237,7.86709490110688,153.388305664062,0.99556007872018,120.971282958984,0.999006769135103,109.640411376953,1.00739039181271,127.86954498291,1,70002,0.0103960839216928,-0.000996587869940797,-0.000412323885873711,-0.000458629545553541,-0.000617650425644179,103,0.898636162281036,0.778282525261183,0.400931401959944,0.906832137212737,0.359105378389359,0.063178485374511,0.296662952487072,0.659539578459988,-0.000667473881298335,-0.000506705146965207,-0.000584035766039337,0.817596055136158,3.22842153564043,61
238,7.90043004899292,153.676239013672,0.997428897512866,120.945785522461,0.998796205842234,109.377937316895,1.00497874593431,127.784118652344,1,69204,0.0078637180653357,-0.00174491097630153,-0.00115867898873474,-0.000429940703595097,-0.00138776413310657,103,0.888416171073914,0.774146003121207,0.401595283509624,0.900507482108003,0.355271726846695,0.0569030579050098,0.283524073752962,0.654533568878511,-0.0011902224922111,-0.00103513156005971,-0.00102305933696886,0.817596055136158,3.22842153564043,61
239,7.93376519687897,153.803436279297,0.998254465793514,120.95890045166,0.99890451173704,109.237632751465,1.00368960929786,126.860847473145,1,69200,0.00560506163028873,-0.00206113579271236,-0.00145203298046419,-0.000314674247364054,-0.00168481953680681,103,0.88834536075592,0.775578034682081,0.39478323699422,0.900455432661028,0.356080055236816,0.0555627846454131,0.285881502890173,0.655488202160165,-0.00142222722244967,-0.00127570268811389,-0.00110124723737752,0.817596055136158,3.22842153564043,61
