frame_index,time_s,R_skin_raw,R_normalized,G_skin_raw,G_normalized,B_skin_raw,B_normalized,frame_luminance,face_detected,skin_pixel_count,BVP_detrended,BVP_butterworth,BVP_cheby1,BVP_cheby2,BVP_elliptic,gt_bpm,bisenet_conf,vote_mean,highconf_pct,roi_coverage,green_cv,hair_rej_frac,clust_agree,quality_score,BVP_pca
1,0.0,155.3748779296875,1.0018775736418633,120.8819808959961,0.9953227037184481,108.43507385253906,0.9940187877788628,128.1311492919922,1.0,67591.0,-0.003649517275967573,-0.00044851626772198985,-0.0007002132322519165,0.0002822049098288443,-0.0008020926517542696,,0.969325602054596,0.7664235376504762,0.37031557455874303,0.882481199080844,0.35734865069389343,0.0658032170461667,0.38732967406903285,0.6925535281301642,-0.013908851579102413
2,0.03333514788604609,155.2962188720703,1.0013703697306484,120.8774185180664,0.9952851378355705,108.547119140625,0.9950459012162638,128.08401489257812,1.0,67872.0,-0.001864484365416974,0.00030483796669174035,-2.7268344113928996e-05,0.0004166864280701329,-0.00016524632585898568,,0.969478189945221,0.7653818953323904,0.36922442244224424,0.8861499895550449,0.35818663239479065,0.061024650094004596,0.3878624469589816,0.6932544719295389,-0.01572606186929934
3,0.06667029577209219,155.29641723632812,1.001371648809377,120.85182189941406,0.9950743794124022,108.53700256347656,0.9949531630698664,128.1505584716797,1.0,67833.0,-0.0013334411292090231,0.0008187258177015373,0.00042657612855830145,0.0005084489171976556,0.00027254040241288523,,0.9693562388420105,0.7653747684263804,0.36862589005351376,0.8856407979945686,0.358353853225708,0.061886358888656776,0.3881444134860614,0.6931410786708059,-0.013979642083757283
4,0.10000544365813828,155.2847137451172,1.0012961831643912,120.8936767578125,0.9954190055553236,108.54535675048828,0.9950297454758281,128.19354248046875,1.0,67913.0,-0.0023999987571535764,0.0009416977836747549,0.000541266082509605,0.0005434583382396155,0.00039755957756827887,,0.9692153334617615,0.7654695468221596,0.36960523022101804,0.8866852935032379,0.35816723108291626,0.06101159390014623,0.38814365438134085,0.6932646185821171,-0.014128896889198023
5,0.13334059154418437,155.32102966308594,1.0015303529623913,120.85045623779297,0.9950631347752197,108.45816040039062,0.9942304209847442,128.17083740234375,1.0,67947.0,-0.002621277380272957,0.0006713823650958508,0.0003254940043667081,0.0005187397098445251,0.00020531195825097595,,0.9688006043434143,0.7648166953655055,0.36769835312817345,0.8813183392349897,0.3585514724254608,0.06552784155025487,0.38580069760254315,0.6918391750314226,-0.014804337119760176
6,0.16667573943023045,155.41342163085938,1.002126108477892,120.86433410644531,0.9951774029039062,108.37644958496094,0.9934813821099951,127.81876373291016,1.0,67985.0,-0.003988854964498023,0.00014122880379253597,-9.931826278541708e-05,0.0004411249779559105,-0.00020638644194817939,,0.9688892960548401,0.7680174548307225,0.37321467970875927,0.8818112248206804,0.3575306534767151,0.06506089731117942,0.38390821504743694,0.6921977144195532,-0.0122096795535167
7,0.20001088731627656,155.45770263671875,1.0024116382063781,120.82694244384766,0.9948695259942347,108.41596221923828,0.9938435924117996,127.92064666748047,1.0,67663.0,-0.0019243610876596984,-0.000444495641127132,-0.0005565776760278832,0.0003251587154502329,-0.0006756636911510164,,0.968670666217804,0.767238618841415,0.3736015252057993,0.8776346680156167,0.357242226600647,0.06910774738316666,0.38464153229977976,0.6914864572013832,-0.012210810609149789
8,0.23334603520232264,155.4642333984375,1.0024537494137495,120.97856140136719,0.9961179319982955,108.37157440185547,0.9934366915552832,127.82585906982422,1.0,67818.0,-0.006932525876124529,-0.0008921379240348718,-0.0008831998554285295,0.0001854081785686185,-0.001035390817021902,,0.9683258533477783,0.7663255576199043,0.37262968533427704,0.8796451223783026,0.3572355806827545,0.06759017860617145,0.38360022412928724,0.6912521911097955,-0.012814037805233216
9,0.26668118308836875,155.5358123779297,1.0029153000534214,120.96508026123047,0.99600693046812,108.5481948852539,0.9950557625123739,127.96656799316406,1.0,67516.0,-0.0027717248043124254,-0.001080113907985377,-0.000979220831245712,3.560814527208784e-05,-0.001160847773261966,,0.9680284261703491,0.7655814917945376,0.37235618223828426,0.8757279790393919,0.35733410716056824,0.07324539216830746,0.38356833935659695,0.690117810025885,-0.012993623684922271
10,0.3000163309744148,155.5309295654297,1.0028838150385642,121.0257339477539,0.996506343125106,108.55577850341797,0.995125281153037,127.90281677246094,1.0,67805.0,-0.004334587196738682,-0.0009803779687677838,-0.0008235943785145761,-0.00011921816862533532,-0.0010057732294740866,,0.9680027961730957,0.7645503035666003,0.3706806282722513,0.8794765036253032,0.3567337989807129,0.0685629791042453,0.38430794189219086,0.6908022714783528,-0.012752459369041564
11,0.3333514788604609,155.15664672851562,1.0004703902590903,120.54927825927734,0.9925832839516752,108.08633422851562,0.9908219094441494,128.35006713867188,1.0,67876.0,-0.0022202667576177726,-0.0006434305511873966,-0.0004612495429327785,-0.00027749831992050214,-0.0006037865452602161,,0.9587423801422119,0.7640943288742217,0.3720313512876422,0.8803974214301464,0.3576502799987793,0.06927636613616613,0.4294596028051152,0.6973121627896338,-0.00949356409097175
12,0.366686626746507,155.1261444091797,1.0002737073069043,120.60227966308594,0.9930196889489182,108.0859146118164,0.9908180628392836,128.270751953125,1.0,67829.0,-0.0038761785496831958,-0.0001674773606601629,2.1602240970398103e-05,-0.0004420165870301018,-5.649457637743772e-05,,0.9595914483070374,0.7642896106385174,0.372790399386693,0.8797877997846868,0.3575208783149719,0.0685629791042453,0.42960975394005513,0.6977076583357946,-0.010878732813566142
13,0.4000217746325531,155.18121337890625,1.0006287992400904,120.59182739257812,0.992933626641991,108.09806823730469,0.9909294745038472,128.32603454589844,1.0,67532.0,-0.003014076085963213,0.0003277894656874273,0.0005190670183100827,-0.0006111837814153077,0.0005004048194409738,,0.9604175090789795,0.763573811921262,0.3716756500621927,0.8759355098123144,0.357954740524292,0.07346589361453754,0.42847835100396847,0.696760266876465,-0.011106649102902391
14,0.4333569225185992,155.18821716308594,1.0006739605582762,120.64312744140625,0.9933560229571575,107.98683166503906,0.9899097745230964,128.13876342773438,1.0,68117.0,-0.006495734843370848,0.0007183014422020367,0.0009213717770526201,-0.0007767761756932598,0.0009297173134138328,,0.9600931406021118,0.7647185479885099,0.3743705682869181,0.8835233536972904,0.3568394184112549,0.0653073401040248,0.4286448316866568,0.6982467866689173,-0.00889803262437868
15,0.4666920704046453,155.1646728515625,1.0005221437522618,120.55747985839844,0.9926508145939721,108.14196014404297,0.9913318293727951,128.41317749023438,1.0,68081.0,-0.0013078970619150865,0.0008954447347796038,0.0011328831164022282,-0.0009170253088271296,0.0011326493760565244,,0.961195707321167,0.7662490268944345,0.3768746052496291,0.8807829641896088,0.35756915807724,0.06911095011384806,0.4233927233736285,0.6971695248656886,-0.007747224777356496
16,0.5000272182906914,155.15817260742188,1.0004802293262332,120.58172607421875,0.9928504540183621,108.10315704345703,0.9909761233301271,128.2480926513672,1.0,68473.0,-0.002746613033437484,0.0007999339677024175,0.0010996578091832568,-0.0010016100296512227,0.0010753843429120048,,0.9610829949378967,0.7656107760236396,0.3767762475720357,0.8858543779755744,0.35817524790763855,0.0640654108880149,0.42307186774349015,0.6977568117458178,-0.007604149843194855
17,0.5333623661767375,155.13414001464844,1.000325264018733,120.60082244873047,0.9930076904813101,108.13728332519531,0.9912889572131105,128.25601196289062,1.0,67769.0,-0.0027663838659209294,0.0004621256784521117,0.0008415071462600909,-0.000992673092679034,0.0008103315982383983,,0.961323618888855,0.7652269720176875,0.3760568991721879,0.8767465328089422,0.35774362087249756,0.07334144069550817,0.4231728371379244,0.6962762360420549,-0.007603517018255842
18,0.5666975140627836,155.06680297851562,0.9998910659857182,120.6429214477539,0.9933543268386998,108.10076904296875,0.990954232651528,128.1757049560547,1.0,67923.0,-0.005024555041492795,2.1685295154197242e-05,0.00046990209735477703,-0.0008576575652200284,0.00046813468181088573,,0.9617154598236084,0.7657347290314033,0.3775598839862786,0.8787388739391431,0.35786202549934387,0.07072811012212793,0.4224783946527686,0.6967549920731959,-0.006572969474731474
19,0.6000326619488296,155.12644958496094,1.000275675120333,120.59561920166016,0.9929648477854529,108.0970230102539,0.9909198929608182,128.2344970703125,1.0,67843.0,-0.003411262243594615,-0.0003000188704653615,0.00017082343746758265,-0.000577445231557563,0.0002294383420797689,,0.9614251852035522,0.7659989485527862,0.37738602361334256,0.8777038915338439,0.3580154478549957,0.07224177188987788,0.42275547956310894,0.6965484984216866,-0.006890343723727856
20,0.6333678098348757,155.1016387939453,1.0001156918885898,120.67719268798828,0.9936365106946975,108.04170227050781,0.9904127705629839,128.00657653808594,1.0,68153.0,-0.006867313850848211,-0.0002779909255366652,0.00014573657147505778,-0.00015904448328171643,0.0002662853660272604,,0.9615094065666199,0.7658797118248647,0.37756224964418295,0.881714448354378,0.35840675234794617,0.06793365762782033,0.42178627499889954,0.6970411637859566,-0.005328510269098381
21,0.6667029577209218,154.94921875,0.9991328674716888,120.41036224365234,0.9914394719191719,107.84071350097656,0.9885703167706038,128.26998901367188,1.0,67461.0,-0.004161920649081385,0.00021557303716790926,0.0005273656974491762,0.0003621392998981595,0.0006803274292884219,,0.9607617259025574,0.7660673080248835,0.3770623026637613,0.8727618505485407,0.35919713973999023,0.076743945352929,0.3671454618223863,0.6845539541886247,-0.006454797296820136
22,0.7000381056069679,154.98062133789062,0.9993353554734891,120.44507598876953,0.9917252992888935,107.78596496582031,0.9880684397430409,128.03863525390625,1.0,67974.0,-0.005965507054815411,0.0011342319593079604,0.0013058810531819509,0.0009194023681122487,0.0014469009208476693,,0.9600992202758789,0.7667490511077765,0.37860064142172006,0.8793986752225212,0.3588455319404602,0.06944731939557028,0.36736104981316386,0.6857352541498666,-0.005504688635237818
23,0.733373253493014,154.91583251953125,0.9989175886826029,120.35582733154297,0.9909904402622995,107.88721466064453,0.988996590527989,128.275390625,1.0,67691.0,-0.001946363607025603,0.002245430682103319,0.002303156217503115,0.0014274622420324128,0.0024029653523706196,,0.9602405428886414,0.7663992751375122,0.376830006943316,0.8757374249637756,0.3590942919254303,0.0737166218174291,0.3677298311444653,0.6850912974877672,-0.007451280548791003
24,0.76670840137906,154.96151733398438,0.9992121703528604,120.34278869628906,0.9908830822458481,107.86211395263672,0.9887664936187525,128.17758178710938,1.0,67822.0,-0.0017744520038991962,0.0031973650053835644,0.003214667757109228,0.0017934876277102328,0.003277035205867139,,0.9595229625701904,0.7663245947725911,0.3765002506561293,0.8774322086524529,0.35915839672088623,0.07228058373007659,0.367520863436643,0.6850849388875822,-0.006632548423317359
25,0.8000435492651062,154.88226318359375,0.9987011292054598,120.3722915649414,0.9911260041005103,107.83452606201172,0.988513596833403,128.2744903564453,1.0,67387.0,-0.0035850256289885474,0.0036414791938713465,0.0037085821283375582,0.0019379242606262024,0.003768964814202105,,0.9599846005439758,0.7660429063963871,0.3758440055203526,0.871804491823639,0.359184205532074,0.07920202856551439,0.3670144093074332,0.6839352887062756,-0.006958879741455062
26,0.8333786971511523,154.91709899902344,0.9989257551083315,120.37946319580078,0.9911850541505187,107.88912963867188,0.9890141450338306,128.2552490234375,1.0,67384.0,-0.002530851327671335,0.0033614510368716747,0.0035447301616938496,0.001811360598702428,0.003646772135396491,,0.9595744013786316,0.7655872808579683,0.3737088923186513,0.8717656799834402,0.359453946352005,0.07909853032498447,0.3693903597293126,0.6842333636101166,-0.0070205402932946755
27,0.8667138450371984,154.93936157226562,0.999069307097946,120.38903045654297,0.991263829429998,107.87647247314453,0.9888981174434283,128.28363037109375,1.0,67105.0,-0.002892947134162105,0.0023562051167018657,0.002665891895560002,0.001407451422020012,0.0028311851173303147,,0.9598219394683838,0.7654720214589076,0.37348930780120704,0.8681561788449597,0.359076589345932,0.08314789898571724,0.36934654645704496,0.6836155346125717,-0.007039662405295185
28,0.9000489929232445,155.01947021484375,0.9995858581229464,120.38451385498047,0.9912266404623331,107.80095672607422,0.9882058684441503,128.10714721679688,1.0,67387.0,-0.003705616961913516,0.0008430642262021368,0.001224740807948847,0.0007695927509692642,0.0014366385340822468,,0.9603205919265747,0.7660181736338858,0.3752949381928265,0.871804491823639,0.3590514361858368,0.0793055268060443,0.36840933711249946,0.6842767658419536,-0.0055802507880939115
29,0.9333841408092906,155.17694091796875,1.0006012498520904,120.6124267578125,0.9931032384877598,107.65049743652344,0.9868266158158658,127.73564147949219,1.0,67105.0,-0.011935587245488655,-0.0008203925811414894,-0.00046353065424896954,-1.5656255126916762e-05,-0.00025401606121501995,,0.9608902335166931,0.7674539900156471,0.38021011847105285,0.8681561788449597,0.3596258759498596,0.08477799627406334,0.3653528053051188,0.6832194380394764,-0.0040135102432413035
30,0.9667192886953366,155.14566040039062,1.0003995489756616,120.53062438964844,0.9924296910024513,107.6911392211914,0.9871991769816724,127.7922592163086,1.0,67644.0,-0.009069678542749537,-0.0022618162097522653,-0.0020227617792327444,-0.0008284808553857664,-0.0018666240775365044,,0.9609962701797485,0.7675773165395304,0.3809946188871149,0.8751293728006624,0.3591884672641754,0.07537259366590768,0.3664183076104311,0.6849885773883843,-0.004862321190659359
31,1.0000544365813828,155.17869567871094,1.0006125647793047,120.61136627197266,0.9930945066186628,107.73374938964844,0.9875897822212124,127.78578186035156,1.0,67458.0,-0.010299438269157968,-0.0032114740589181774,-0.003131568801292209,-0.0015407297883492951,-0.0030525624610589735,,0.9603214859962463,0.7647672131795585,0.3761155089092472,0.872723038708342,0.3588722050189972,0.07678275719312772,0.39237747932046607,0.6892240688481661,-0.003866298154379999
32,1.0333895844674288,155.17384338378906,1.0005812765457904,120.57498168945312,0.9927949218436735,107.7506103515625,0.9877443457985416,127.80487823486328,1.0,67507.0,-0.008987840160481153,-0.0035643347982575843,-0.003612140631063402,-0.002034212509779151,-0.0035909436720035558,103.0,0.9600892066955566,0.7645775006048755,0.3739167790006962,0.8733569654315877,0.35977718234062195,0.07579952390809357,0.3931888544891641,0.6894476488674021,-0.005286015376965023
33,1.066724732353475,155.12168884277344,1.0002449772308473,120.6196517944336,0.9931627282721832,107.73697662353516,0.9876193661095428,127.98439025878906,1.0,66937.0,-0.010792724661616349,-0.0033738707832999286,-0.0034663908519045354,-0.0022258785232845513,-0.003455722470475051,103.0,0.9607642292976379,0.763738042238722,0.3736647892794717,0.8659827157938315,0.3589153289794922,0.08433812875181122,0.39118872970106217,0.6876823111120764,-0.005253317253250289
34,1.100059880239521,155.1505126953125,1.000430837209176,120.55473327636719,0.9926281996812029,107.68157196044922,0.9871114743907354,127.80987548828125,1.0,67640.0,-0.009853568310002725,-0.002799285304206563,-0.002855277729523346,-0.002080329116240947,-0.0028104004144261963,103.0,0.9616082906723022,0.764217425586438,0.37520697811945597,0.8750776236803974,0.3581099808216095,0.07294038501345478,0.39180958013010053,0.6899370122092305,-0.003929940937472037
35,1.1333950281255671,155.11856079101562,1.0002248071432043,120.60794830322266,0.9930663636161057,107.72743225097656,0.9875318733334167,127.84895324707031,1.0,67402.0,-0.010647594254079018,-0.002039964305169346,-0.0020341866103415988,-0.0016184264700765342,-0.0019429157555958926,103.0,0.9611470699310303,0.7636667556847967,0.37546363609388445,0.8719985510246325,0.3578907251358032,0.07648519975160423,0.3925996261238539,0.689302411884231,-0.0045731175373385675
36,1.166730176011613,155.2577362060547,1.0011222284573051,120.74750518798828,0.9942154524615884,107.93360137939453,0.98942181521132,127.90335845947266,1.0,68100.0,-0.009775967583226242,-0.001280225980271187,-0.0012662989393183474,-0.0009122142048463218,-0.0011554503872514264,103.0,0.9636841416358948,0.7654038179148311,0.3779882525697504,0.8821700606249029,0.3573991358280182,0.06553448365200269,0.38697503671071953,0.6909112889497635,-0.004503812878197341
37,1.2000653238976593,155.22438049316406,1.0009071464495622,120.73907470703125,0.9941460372432275,108.0078353881836,0.9901023145811901,128.06777954101562,1.0,67258.0,-0.00832672486238395,-0.0006508842471076941,-0.0007391250051131154,-7.355567313456782e-05,-0.0006561360396761327,103.0,0.9640763998031616,0.7650985756341253,0.3773677480745785,0.8712627597284833,0.3572465479373932,0.07879941965904969,0.3867197954146719,0.6887748670151019,-0.004832579070819323
38,1.2334004717837053,155.14161682128906,1.000373475447733,120.71593475341797,0.9939555066031471,108.07202911376953,0.9906907751873656,127.95586395263672,1.0,67698.0,-0.00695610281368092,-0.00020701056178139694,-0.0005092822245718587,0.0007656809803635856,-0.000490767021636946,103.0,0.963355541229248,0.7648625759500526,0.38057254276344943,0.8769625369190114,0.3568243980407715,0.07188196279599979,0.3867617950308724,0.689662645456137,-0.00498447779693675
39,1.2667356196697515,155.13555908203125,1.0003344143511759,120.69303131103516,0.993766923358333,108.0469741821289,0.9904610979077506,127.98039245605469,1.0,67590.0,-0.0068205633315953085,7.497115058535791e-05,-0.0004958140687121577,0.0014753975125813721,-0.0005455669576258937,103.0,0.9632933735847473,0.7644178132859891,0.38132859890516346,0.8755635006995182,0.3566000759601593,0.07339758536711746,0.38659565024411896,0.6892824224434696,-0.003908078332985839
40,1.3000707675557976,155.10357666015625,1.0001281875038612,120.6811752319336,0.9936693023182128,108.06785583496094,0.9906525189535198,127.72515869140625,1.0,67922.0,-0.0062782975666847984,0.00027379362882341883,-0.0005293067284190264,0.0019486844012194466,-0.0006187003041259976,103.0,0.9625979661941528,0.7638369502272214,0.3831306498630782,0.8798642416705529,0.35620519518852234,0.0680993833877403,0.386575778098407,0.6898361358716254,-0.0025021942451987737
41,1.3334059154418436,154.84739685058594,0.9984763065212453,120.3873519897461,0.991250009205528,107.64816284179688,0.9868052147051587,128.21749877929688,1.0,66741.0,-0.007589376518944091,0.00047336532055326005,-0.0004425582401492013,0.0021175265160032894,-0.0005322594727088425,103.0,0.957465648651123,0.7670247673843664,0.38513057940396456,0.864565521529613,0.3565983474254608,0.0787216954246334,0.37149578220284385,0.6844750508122814,-0.004192406274941871
42,1.3667410633278898,155.0719451904297,0.9999242236419896,120.66049194335938,0.9934989994612204,107.969970703125,0.9897552109457671,128.2484893798828,1.0,67768.0,-0.007728281914240853,0.0007036767738343905,-0.00016602335073254002,0.001962702159983645,-0.00023223737631806261,103.0,0.9636715650558472,0.7707423365993783,0.38997757053476567,0.877130764551326,0.35478711128234863,0.06875396383686465,0.360538897414709,0.6861735038528809,-0.005388999074910961
43,1.4000762112139358,155.07676696777344,0.9999553150941611,120.64126586914062,0.9933406950718362,108.03935241699219,0.9903912295757362,128.3507080078125,1.0,67544.0,-0.00584083695711185,0.0009046949878035375,0.000219103650938298,0.0015143863265760168,0.0001711681169570737,103.0,0.9640678763389587,0.7709986576651269,0.3909155513443089,0.8742315010160365,0.35483884811401367,0.07178265877997955,0.35978029136562834,0.685687533486094,-0.006362440297503068
44,1.433411359099982,155.08670043945312,1.0000193674212612,120.66803741455078,0.9935611276521336,108.02893829345703,0.9902957638367976,128.3164520263672,1.0,67572.0,-0.006713127738442459,0.0009419118973279091,0.0005047269661589849,0.0008449358302263193,0.00044796994854675746,103.0,0.9635854363441467,0.768306399100219,0.3846711655715385,0.8745939089579478,0.35509705543518066,0.07099312719224447,0.3598087965429468,0.6851604978639109,-0.006670039895142955
45,1.466746506986028,155.04383850097656,0.9997429880252181,120.6319580078125,0.9932640556452296,108.05476379394531,0.9905325048817113,128.37283325195312,1.0,67329.0,-0.005469103437619138,0.0006769952636906469,0.0004564101239114553,5.7101511698508273e-05,0.000364378941468219,103.0,0.964327335357666,0.768475198898939,0.3847673365117557,0.87144872574779,0.35570618510246277,0.07475958115996428,0.3586121879130835,0.6845377782162267,-0.00625493405671157
46,1.5000816548720741,155.02459716796875,0.9996189173885465,120.64578247070312,0.9933778840395011,108.08377838134766,0.9907984801236039,128.47299194335938,1.0,67700.0,-0.005410232450880126,6.297847413179721e-05,-5.1346312339482145e-05,-0.0007339005653383935,-0.00018415145723639406,103.0,0.9636893272399902,0.7691580502215657,0.38580502215657314,0.8762506309781132,0.3556274473667145,0.06929757574973143,0.36016248153618907,0.6856988260415915,-0.006023808414440637
47,1.53341680275812,155.04359436035156,0.9997414137744752,120.63306427001953,0.9932731644295394,108.05814361572266,0.9905634875354474,128.37734985351562,1.0,67544.0,-0.005418048783913887,-0.0007882372376821145,-0.0009331971220154667,-0.0014163568780714271,-0.0010846589392864226,103.0,0.9641127586364746,0.7687926882229855,0.3853488096648111,0.8742315010160365,0.35490110516548157,0.07153673910511124,0.3594989932488452,0.685240647696667,-0.005489415469193761
48,1.5667519506441663,155.07717895507812,0.9999579716422897,120.67786407470703,0.9936420387844855,107.9432373046875,0.9895101472466896,128.3104248046875,1.0,67593.0,-0.00862838810265365,-0.0016118919582753118,-0.0018852203120551278,-0.0018988544870790235,-0.0020190290674947917,103.0,0.9634937644004822,0.7688665986122823,0.3845072714630213,0.8748657149143811,0.35429492592811584,0.07142025083806837,0.35965262675129084,0.6851500460387442,-0.004758098527041673
49,1.6000870985302125,155.11659240722656,1.0002121147465899,120.61425018310547,0.9931182522770705,107.85090637207031,0.9886637542997042,128.21295166015625,1.0,67408.0,-0.00836114092699175,-0.002080759887223332,-0.0024904209521060803,-0.0021204674238640797,-0.002578438683210451,103.0,0.963204026222229,0.7688899438246697,0.38416805126987896,0.8724712338696108,0.355172336101532,0.07509610282031037,0.3585776169000712,0.6842791422492558,-0.0038643061984109835
50,1.6334222464162584,155.2070770263672,1.000795571428162,120.54150390625,0.992519271184698,107.76763916015625,0.9879004480178171,128.1305694580078,1.0,67826.0,-0.007360730240866198,-0.0019447188410440278,-0.0023988519894149376,-0.0020584664169149003,-0.0024403252582696606,103.0,0.9619224667549133,0.7705157314304248,0.3879338306843983,0.8778814667167135,0.3548409044742584,0.06976352881790296,0.35984725621443103,0.6853910496068352,-0.001349410348706618
51,1.6667573943023046,155.33184814453125,1.0016001119484343,120.54375457763672,0.9925378028493284,107.84092712402344,0.9885722750421718,128.1404571533203,1.0,67712.0,-0.005274267145671807,-0.0011538225720860253,-0.0014999695432820202,-0.0017277121941657932,-0.0015229685403772182,103.0,0.9654950499534607,0.7702672101449276,0.3861353969754253,0.8764059486675037,0.35485196113586426,0.07028125444920465,0.247843809073724,0.6637509656202227,-0.0025522513463298625
52,1.7000925421883506,155.40618896484375,1.0020794712996348,120.53910827636719,0.9924995459552272,107.7420425415039,0.9876658051210119,128.1600799560547,1.0,67602.0,-0.006560674291282098,9.772254198855332e-05,1.0721917264791339e-08,-0.001177740718525037,-4.615877583836305e-05,103.0,0.96540766954422,0.7698638107353827,0.38472234549273693,0.8749822031814241,0.3547956049442291,0.0710966723185048,0.24892754652229224,0.6637347212666292,-0.0008303257809893216
53,1.7334276900743968,155.32911682128906,1.0015825000182486,120.51652526855469,0.9923136011169028,107.88410186767578,0.9889680557137129,128.23512268066406,1.0,67467.0,-0.003696470633569704,0.0014350063879564371,0.001643120812372522,-0.0004829062047816951,0.001544148531094678,103.0,0.9659140110015869,0.7691414568109841,0.3831947470615264,0.8732348791757808,0.35469743609428406,0.07328406311075446,0.24829916848236916,0.6632411777113467,-0.0025349311617410206
54,1.7667628379604428,155.29583740234375,1.0013679099638626,120.47484588623047,0.9919704198156305,107.9854965209961,0.9898975353257965,128.27191162109375,1.0,67787.0,-0.0008077108751937678,0.0024527131189363157,0.002906955494560998,0.00026672846577267763,0.002755400567574707,103.0,0.9652422666549683,0.7704623797089903,0.3882307817133079,0.8773766842261943,0.356249064207077,0.0697505856771204,0.2482776933630342,0.6638984875698077,-0.002912110723539394
55,1.800097985846489,155.34693908691406,1.0016974203224773,120.395263671875,0.9913151527181436,107.97569274902344,0.9898076646484807,128.2783203125,1.0,67457.0,0.0015370741492721773,0.002887849927790162,0.0034315401498508573,0.0009787032256360626,0.003259153810119394,103.0,0.9647812843322754,0.7688552213508854,0.3847488029411329,0.8731054477679554,0.35743260383605957,0.07496667141248495,0.24836562550958388,0.6626448230291652,-0.004205415535492269
56,1.833433133732535,155.44993591308594,1.0023615573546207,120.42012023925781,0.9915198176787047,107.92051696777344,0.9893018710777818,128.00657653808594,1.0,67457.0,0.00043062676394084454,0.0027317568029135188,0.003177491501906831,0.001568503050838413,0.0030303577422899934,103.0,0.964043378829956,0.7689194598040233,0.3868686718946885,0.8731054477679554,0.35936781764030457,0.07645513260247731,0.24674978134218836,0.6619118717203349,-0.0029656642034114715
57,1.866768281618581,155.59759521484375,1.0033136838820362,120.57060241699219,0.992758863621647,107.8869857788086,0.9889944923798806,127.62655639648438,1.0,66921.0,-0.0034904802840901583,0.002220747144942147,0.002435267036033062,0.0019693588442101263,0.0023491587439819594,103.0,0.9648771286010742,0.7670785951594666,0.3833774151611602,0.866123082896525,0.36124053597450256,0.08591212062382708,0.24337651858161116,0.6595643655986718,-0.0027392383265580425
58,1.9001034295046273,155.6255340576172,1.003493837201422,120.56395721435547,0.992704148096586,107.94793701171875,0.9895532292211849,127.35098266601562,1.0,67462.0,-0.0019733744311520862,0.0017051549051170687,0.0016763300928679529,0.002140060336916699,0.001659813146970141,103.0,0.9635353684425354,0.7664018262132757,0.38461652485843884,0.873124959554779,0.36256828904151917,0.07660648417782955,0.24317393495597522,0.6605419568760313,-0.0011922060000682695
59,1.9334385773906733,155.5058135986328,1.0027218639933926,120.51679992675781,0.9923158626081797,107.91401672363281,0.9892422836714992,127.20374298095703,1.0,67325.0,-0.002015695608007795,0.001463037669902915,0.0013161133569869483,0.0020671565825785758,0.0013484744175383304,103.0,0.9635446667671204,0.7652927342492882,0.38459710360193095,0.8713518410664596,0.3643645942211151,0.07831489031256067,0.24516895655402896,0.6604481224024338,-0.0032487527738730877
60,1.9667737252767195,155.46722412109375,1.0024730339853496,120.46330261230469,0.9918753743627978,107.89265441894531,0.989046456514702,126.85855102539062,1.0,67844.0,-0.001155316659713912,0.0015554573721302944,0.0015044089274626833,0.0017671446921439869,0.0015497558010296234,103.0,0.9627981781959534,0.7629070612974864,0.3849124462001061,0.8780689833689251,0.36583900451660156,0.07123535883000065,0.24460527091562997,0.6608043535788115,-0.001796910023456194
61,2.0001088731627656,155.53073120117188,1.0028825359598357,120.4179916381836,0.9915022911213085,107.89757537841797,0.9890915666990358,127.49127197265625,1.0,66957.0,0.0005900019559049174,0.0017963721913269437,0.0020469385655078427,0.0012823024813065997,0.002072713805952071,103.0,0.9604170918464661,0.7691304369470954,0.390205654375196,0.8725403320388856,0.36844247579574585,0.0784748103938075,0.27069611840434904,0.6655136143688961,-0.012642098075434245
62,2.0334440210488114,155.5489501953125,1.0030000144215214,120.4931869506836,0.992121437177567,107.99463653564453,0.9899813213735976,127.24320983886719,1.0,67018.0,0.00045658877010468224,0.0018490420653866425,0.0024984277583981343,0.0006749860829093948,0.002489670822250725,103.0,0.9621263146400452,0.7682015776855969,0.39137246709839146,0.873335244598504,0.36948713660240173,0.07430477729416977,0.27252379957623324,0.6667878897453102,-0.014021075254433784
63,2.0667791689348576,155.71238708496094,1.0040538769031941,120.90454864501953,0.9955085229183682,108.44454193115234,0.9941055811722861,127.18779754638672,1.0,67281.0,-0.001467940765631559,0.0013990091285469805,0.0023845221384117526,1.9221636247431095e-05,0.0023475498629108435,103.0,0.9649267196655273,0.7687707772872976,0.39177479526166376,0.8774943266296268,0.3695506751537323,0.07041500378224691,0.26462151275991735,0.6666437373206653,-0.014534153352783206
64,2.1001143168209038,155.66366577148438,1.0037397154893224,120.8741226196289,0.9952579999402474,108.4841537475586,0.9944687006716042,126.94638061523438,1.0,67712.0,-0.0001552984747904551,0.0003213589686567798,0.0014477242866254047,-0.0006085360824316182,0.0014054585596276323,103.0,0.9633162617683411,0.7693761814744802,0.3972707939508507,0.8831155280799228,0.3693983554840088,0.06682839032788168,0.26510810491493386,0.6670333802675071,-0.012493592492480316
65,2.13344946470695,156.227783203125,1.0073772186120404,121.53497314453125,1.0006993364101178,109.11646270751953,1.0002650446362593,127.19123840332031,1.0,67654.0,-0.003150415531755879,-0.0012330607880101192,-0.00019990618440486293,-0.0011406469191973143,-0.00021879166272390885,103.0,0.9568578004837036,0.7697746376168938,0.39610370414166196,0.8806591861706282,0.3705030381679535,0.07020124443518784,0.2567771306944157,0.6632926046735578,-0.014023099616766285
66,2.1667846125929957,156.18663024902344,1.0071118589711974,121.49114990234375,1.0003385029130452,108.96851348876953,0.9989088016988984,126.95765686035156,1.0,68113.0,-0.004972095574279856,-0.0028704752235414934,-0.0020923818962228944,-0.0015247827916632331,-0.0020641699367835754,103.0,0.9542155861854553,0.769544727144598,0.4007164564767372,0.886634037124782,0.36901429295539856,0.06457785530186665,0.25633873122605083,0.6633981313721949,-0.009958379276753297
67,2.200119760479042,156.8189239501953,1.0111889716138587,122.07405853271484,1.005138078413888,109.65514373779297,1.0052031061479805,127.04971313476562,1.0,68402.0,-0.004360316879916337,-0.004094486992288331,-0.0035919975934487042,-0.0017307761480155664,-0.0035079064156340926,103.0,0.9395824670791626,0.7728916308490006,0.4037893628841262,0.8864381520119226,0.3689083158969879,0.06132313872869825,0.25138153855150436,0.6599385484533,-0.013664962415246494
68,2.233454908365088,156.82723999023438,1.0112425945297874,122.20272064208984,1.0061974614387197,109.78639221191406,1.006406254211688,126.73839569091797,1.0,68685.0,-0.0053927147495662076,-0.004499214121009232,-0.004159808452460525,-0.0017523527585798571,-0.004030856963174163,103.0,0.936016321182251,0.7710756836766883,0.40656620805124843,0.8901056178319187,0.3700430393218994,0.06200997861724875,0.2502293077091068,0.658343481993962,-0.01109372180981415
69,2.2667900562511343,157.6575164794922,1.016596326134236,122.81556701660156,1.0112435394887465,110.4236068725586,1.012247568484136,126.97140502929688,1.0,68245.0,-0.005357258799362885,-0.003938581620458695,-0.0035941846994338583,-0.0016047448252537362,-0.003447879735979719,103.0,0.917801558971405,0.7755391115344225,0.4106234889002857,0.8815588911566383,0.36963731050491333,0.06947063838582168,0.2446919188218917,0.6523812936723826,-0.01792839237668349
70,2.3001252041371805,157.63546752929688,1.0164541516140215,122.94021606445312,1.0122698796132543,110.53909301757812,1.0133062240814357,126.6006851196289,1.0,69149.0,-0.006759444952247284,-0.0026007456734074615,-0.0021289710545526973,-0.0013213614941571955,-0.0019992978222896397,103.0,0.9150275588035583,0.7740145675762965,0.4148722324256316,0.8932363655152815,0.3700447678565979,0.059394941483452604,0.2442696206741963,0.6529105367136357,-0.01455119149985668
71,2.333460352023226,155.42518615722656,1.0022019676855636,120.71734619140625,0.9939671281555424,108.33626556396484,0.9931130172404057,127.63072967529297,1.0,68496.0,3.4924648970258154e-05,-0.0009494701538189886,-0.0003436103089325749,-0.0009446155916806771,-0.00025413365381970804,103.0,0.9578724503517151,0.7791695865451996,0.4193675543097407,0.8861748648019251,0.36802104115486145,0.06301912179470592,0.34772833450128476,0.6847646373100728,-0.020915599365510542
72,2.3667954999092724,155.26513671875,1.0011699479329481,120.66793060302734,0.9935602481833037,108.35313415527344,0.9932676507560052,127.80525970458984,1.0,68487.0,0.0007745175160288054,0.0004526562630964235,0.0010785457436708514,-0.0005217223413575669,0.0011255779297847344,103.0,0.9613996148109436,0.7795299351215071,0.4233066129338415,0.8860584262685332,0.36527520418167114,0.06005640800062101,0.34625549374333814,0.6858979641956057,-0.018577494648351008
73,2.4001306477953186,155.8679962158203,1.0050572649704237,121.20852661132812,0.9980114283890968,108.98574829101562,0.9990667922514715,128.12478637695312,1.0,68405.0,0.0013626564617776338,0.0011693374115117558,0.0016380656465201577,-9.498873656273811e-05,0.0016649893271604933,103.0,0.958368718624115,0.781122237653193,0.42531978656530955,0.8810762770808109,0.36403438448905945,0.06706767304670393,0.3342007163219063,0.681925942763576,-0.018051976703611243
74,2.433465795681365,155.69918823242188,1.0039687689724082,121.20441436767578,0.9979775688391452,108.94884490966797,0.9987285008381045,127.87911224365234,1.0,68813.0,-0.00022880010772541315,0.001066300555552244,0.001225544025252401,0.0002995439907055405,0.0012670699251241685,103.0,0.9557201266288757,0.7799107726737681,0.43004955458997574,0.886331435637188,0.36161860823631287,0.06288157860841341,0.33298940607152716,0.6814490148289318,-0.013413578660752299
75,2.4668009435674105,156.50355529785156,1.009155433216771,121.82865142822266,1.003117435957962,109.57286834716797,1.0044488918412302,128.25595092773438,1.0,68407.0,-0.0009159719672948152,0.000359253065811322,0.00015490214834217356,0.0006355215051888253,0.00023984912116598755,103.0,0.9446150660514832,0.7853143684125894,0.4342538044352186,0.8805689644075433,0.3604315519332886,0.06604878676707215,0.3226570380224246,0.6771802419171421,-0.01658632511144492
76,2.5001360914534567,156.53379821777344,1.0093504435275424,121.88068389892578,1.0035458629165337,109.62364196777344,1.0049143310299748,128.0753173828125,1.0,68723.0,-0.0012095407915331258,-0.00048636724350202825,-0.0009884247349893627,0.0008948386279001402,-0.0008545675466153045,103.0,0.9415249228477478,0.7862384742614069,0.44087132401088425,0.8846366737465405,0.35906368494033813,0.06383471712685847,0.3212752644675,0.676670423717421,-0.01183167371839962
77,2.533471239339503,157.10667419433594,1.0130444228956608,122.22344970703125,1.0063681412109249,109.9968490600586,1.0083355013974915,128.42466735839844,1.0,67812.0,-0.00021368869567411908,-0.0009594995411101798,-0.0016134909528956617,0.0010666582355969934,-0.0014530540917160465,103.0,0.9310116171836853,0.7893784777522169,0.44328437444700053,0.8757958904286508,0.3593719005584717,0.07049038473956787,0.3145903379932755,0.672268205886689,-0.015506159831756326
78,2.566806387225549,157.02755737304688,1.012534267264303,122.35115814208984,1.0074196718354895,110.16581726074219,1.0098844242694867,128.22640991210938,1.0,68046.0,-0.001031626722529544,-0.0007254858422460299,-0.0013840026531463908,0.001145162348437062,-0.0012355886555494632,103.0,0.9285709261894226,0.7886037876338555,0.44705052464509304,0.8788180139224322,0.35741981863975525,0.06761032688010953,0.3124357052582077,0.6715329778249508,-0.012414615290528149
79,2.6001415351115953,156.8983154296875,1.0117008982773021,122.44010925292969,1.0081520809132,110.14600372314453,1.0097027945815573,128.2024383544922,1.0,67970.0,-0.004649168087372313,0.00022611404560135323,-0.00035862892069939226,0.0011284774844676404,-0.00025527893085835703,103.0,0.9279078841209412,0.7875974694718257,0.44705016919229074,0.8778364695398365,0.35642173886299133,0.06996086737527284,0.3124760923937031,0.6707979446232974,-0.011335396183843605
80,2.633476682997641,157.4114990234375,1.0150099733387914,122.6301498413086,1.0097168444192206,110.52883911132812,1.013212227046173,128.41551208496094,1.0,68114.0,0.00041677745092244534,0.001572192820467354,0.0010460123253955103,0.0010202993061515539,0.0010972640242498692,103.0,0.9173623323440552,0.7910904268334459,0.45018645212437974,0.8765603685687077,0.3564318120479584,0.06902941857771601,0.30857092521361246,0.6682281465229909,-0.014498562809611615
81,2.6668118308836872,155.2594451904297,1.0011332482125053,120.49493408203125,0.9921358227748562,108.46014404296875,0.9942486049350183,128.68463134765625,1.0,68234.0,0.007664681765809589,0.0027937727031010374,0.0022465255080786287,0.000830098392588575,0.0022695287318830496,103.0,0.9611488580703735,0.7892253128938652,0.4508016531348008,0.8781046508635112,0.3580440282821655,0.07608164105731861,0.3618137585367998,0.6883219662345554,-0.020808208769992485
82,2.7001469787697334,155.27069091796875,1.0012057621373482,120.6497802734375,0.9934108013014207,108.34881591796875,0.993228065695024,128.3400115966797,1.0,68462.0,0.0013272920632030893,0.0034016274386064723,0.002746843526471312,0.0005740407548927414,0.0027797791277295336,103.0,0.964583694934845,0.7919916644756703,0.4567643364202039,0.8810387872236378,0.35545212030410767,0.0692353228836898,0.361981829335982,0.6908629708346513,-0.018647084069570934
83,2.7334821266557796,155.32659912109375,1.0015662655574629,120.8321533203125,0.994912431509294,108.76539611816406,0.997046835129109,128.73040771484375,1.0,68366.0,0.004492082163885636,0.003145023903606601,0.0023402180367208644,0.00027930008506969826,0.002411037754267993,103.0,0.9672881960868835,0.7913387746345649,0.45111605183863324,0.8745027309822582,0.35466912388801575,0.07696637118334036,0.35226574613111783,0.6882283337855231,-0.020033599225622256
84,2.7668172745418254,155.51182556152344,1.0027606299179355,120.88319396972656,0.9953326919715879,108.56690216064453,0.995227251151112,128.26754760742188,1.0,68594.0,0.0004381382149482582,0.002107432445753678,0.0011752292107633617,-2.329942679937793e-05,0.0012789463455384696,103.0,0.9673745036125183,0.7933687105772128,0.4577076712248885,0.8774191897872776,0.3535429537296295,0.07422899318213796,0.35049712802869054,0.6887401547151683,-0.01729341393720628
85,2.8001524224278715,155.48974609375,1.0026182586163783,120.95572662353516,0.9959299141263006,108.55815124511719,0.9951470319550955,127.9346923828125,1.0,68289.0,-0.0018680013234032566,0.0006542132995743575,-0.0003295710511013919,-0.0002973847785446232,-0.00022772024723641677,103.0,0.9663223624229431,0.7931780130523706,0.4610552211922857,0.8735177865612648,0.3524329364299774,0.08171201248449032,0.35168182284116034,0.6874786357869235,-0.013974058375270867
86,2.8334875703139177,155.7575225830078,1.0043449165092802,121.26205444335938,0.9984521679112873,108.94017028808594,0.9986489810247908,128.10577392578125,1.0,69218.0,-0.001529116577779266,-0.0007284956645927777,-0.0016689372956282518,-0.0005103301510191387,-0.0016121576699377363,103.0,0.9612395167350769,0.7943935585156078,0.46040047386517957,0.8815558215950483,0.3516836166381836,0.07030235105326167,0.34177526077031983,0.6862952668724329,-0.013852904495001428
87,2.866822718199964,155.6418914794922,1.0035993120011937,121.24591827392578,0.9983193052987683,108.93612670898438,0.9986119137415399,128.06967163085938,1.0,69137.0,-0.0018436134264612214,-0.0016210593835798955,-0.0024436604365756604,-0.0006383927575806626,-0.0024539617728192337,103.0,0.9604328274726868,0.7935885753407486,0.4626466291566021,0.8805242110089406,0.351479172706604,0.07218726916121145,0.3407148126184243,0.6854189213942123,-0.013815904517582533
88,2.90015786608601,155.6151123046875,1.0034266363728364,121.20992279052734,0.9980229243030879,108.9522705078125,0.9987599031214623,127.87828826904297,1.0,69262.0,-0.0006884536406402963,-0.0018063095127777563,-0.0024854025586198668,-0.0006713194011431257,-0.002547778480456006,103.0,0.9581502079963684,0.7925076761668254,0.4663884958563137,0.8821162026541685,0.35189288854599,0.07195802236429863,0.33927694839883343,0.6843811933339361,-0.013929794954000272
89,2.933493013972056,156.2347869873047,1.0074223799302262,121.78483581542969,1.0027566652800917,109.59766387939453,1.0046761912196556,128.61962890625,1.0,69040.0,-0.0007113484724409758,-0.0013162879633157993,-0.0018799400081036457,-0.0006156871689033499,-0.0019519351442385258,103.0,0.9443756937980652,0.7967072228659714,0.46632387022016225,0.8738798035542504,0.35015276074409485,0.07771758391980153,0.3294611819235226,0.6788927909802469,-0.014421398080036714
90,2.966828161858102,156.11264038085938,1.0066347626054397,121.9693603515625,1.0042760105029673,109.82091522216797,1.0067227248847264,128.32257080078125,1.0,70724.0,-0.002340267743975666,-0.00039525113847047266,-0.000903151440531927,-0.0004935156183955389,-0.0009432938047541237,103.0,0.9392013549804688,0.7914427916973023,0.4661642441038403,0.8951951799908865,0.34951746463775635,0.05828818793985115,0.3293365759855212,0.6796301022113057,-0.012840169599153087
91,3.0001633097441482,155.10023498535156,1.0001066399468184,120.69216918945312,0.9937598247884917,108.39794158935547,0.9936783982173871,129.4900360107422,1.0,69628.0,0.00013926312673512298,0.0005915687534160173,8.772493655935812e-05,-0.00033726636820669134,9.155234272445333e-05,103.0,0.9621133804321289,0.8004346910246835,0.4743206755902798,0.8796189850550172,0.34589287638664246,0.061017976931920105,0.29108979146320446,0.6790703652965026,-0.014233219244971692
92,3.0334984576301944,155.3235626220703,1.0015466858138486,120.90055847167969,0.9954756684756508,108.69197082519531,0.9963737492158891,129.1864776611328,1.0,69798.0,0.001267538988519612,0.001270921407167448,0.0007639561716133466,-0.00018389776380222918,0.0007840410580192643,103.0,0.9660954475402832,0.801498610275366,0.479025186968108,0.8811988688011312,0.34445691108703613,0.05972881527118473,0.27979311728129747,0.678225596953014,-0.012968445257579576
93,3.06683360551624,155.73727416992188,1.0042143520882942,121.27174377441406,0.9985319482980007,109.1071548461914,1.000179719946512,129.19300842285156,1.0,69152.0,0.0013097004923048883,0.0013690498072543046,0.0009090872935951838,-6.561009610317388e-05,0.0008941834716183844,103.0,0.9624948501586914,0.8021990205151935,0.48112852845904674,0.8730321049375702,0.34512877464294434,0.07178477193248242,0.2697535863026377,0.6735286703940419,-0.01550682836112255
94,3.1001687534022864,155.7275390625,1.0041515788399227,121.260498046875,0.9984393527940514,108.99372863769531,0.9991399476821894,128.791015625,1.0,69634.0,-0.0005748743668474443,0.0007911684091317969,0.0004673781331108918,-3.99269063522795e-06,0.00037410571475843474,103.0,0.9602111577987671,0.8032139472096964,0.49090961312002757,0.8791172720271686,0.34474340081214905,0.06575010415483089,0.26900651980354423,0.673976866187567,-0.010978542934946205
95,3.1335039012883326,156.2698516845703,1.0076484816931692,121.72195434570312,1.0022389094160817,109.42046356201172,1.0030518049540231,128.99777221679688,1.0,69539.0,-0.002049921792661613,-0.0003451242362394793,-0.00044343446533803724,-5.375073419484969e-06,-0.0006228495467733759,103.0,0.9496827125549316,0.8067559211377788,0.49326277340772806,0.876468364003025,0.344882607460022,0.0664608016133098,0.2634492874502078,0.6708279915982007,-0.014331418766956544
96,3.1668390491743788,156.3417510986328,1.0081120985369412,121.62688446044922,1.0014561193382574,109.4210205078125,1.003056910447754,128.872314453125,1.0,69541.0,0.0010470339965027997,-0.0017332317814720642,-0.001555857490958044,-5.955033583164179e-05,-0.0017865488690966798,103.0,0.9486845135688782,0.80667999213893,0.4962971484448023,0.8764935719687421,0.34438225626945496,0.06804890345349131,0.26260767029522153,0.6701408363264912,-0.01325394674328172
97,3.200174197060425,156.4768829345703,1.0089834463231135,121.76824188232422,1.0026200335154445,109.34160614013672,1.0023289229923606,128.61656188964844,1.0,69342.0,-0.0035647968058634127,-0.002958638926479919,-0.002515598189710513,-0.0001445655758127824,-0.002740740151431966,103.0,0.9472013711929321,0.8074327247555594,0.49678405583917395,0.8739853793798841,0.34438255429267883,0.07253592135114696,0.2623374001326757,0.6691486203596966,-0.0116216314732495
98,3.2335093449464707,156.49855041503906,1.0091231610765423,121.69895935058594,1.002049572340842,109.22962951660156,1.001302438999392,128.43411254882812,1.0,69692.0,-0.0036188631160399276,-0.0036248507140209042,-0.0029804843569191776,-0.0002288740303475485,-0.0031530107230483034,103.0,0.948697030544281,0.8072901719948726,0.4988664409114389,0.8783967733803882,0.34441471099853516,0.06604487017897656,0.26344487172128794,0.6707540871506661,-0.01025154332328722
99,3.266844492832517,156.5463104248047,1.009431123878114,121.77099609375,1.0026427112474157,109.20890808105469,1.001112486657299,128.4256591796875,1.0,69511.0,-0.005717392917924502,-0.0034916734493364095,-0.0027353018424074466,-0.0002816246531196916,-0.0028462118858493227,103.0,0.9485945701599121,0.8073877995329276,0.4980506682395592,0.8761154524829846,0.34408947825431824,0.06830098311066297,0.26414524319891813,0.6705270937886412,-0.011679219092684674
100,3.300179640718563,156.66773986816406,1.0102141168413434,121.81909942626953,1.003038786316887,109.30901336669922,1.0020301467017043,128.2963104248047,1.0,69660.0,-0.004418251780030136,-0.0025752909359586015,-0.001783552560445222,-0.00027587153021114193,-0.0018648354030626375,103.0,0.9475160837173462,0.8077280122499761,0.49649727246626474,0.8779934459289135,0.34446853399276733,0.06712881270481472,0.2630778064886592,0.6702995746442934,-0.010997155549748873
101,3.3335147886046093,155.69691467285156,1.0039541087623653,120.64704895019531,0.9933883120270558,108.18324279785156,0.9917102653533055,128.53187561035156,1.0,69225.0,0.0010168897318947323,-0.0011610105043721817,-0.0003716634673704638,-0.00019461107674533074,-0.0004751411683289719,103.0,0.9635210037231445,0.806803900325027,0.49678584326471653,0.8725107133854298,0.34544453024864197,0.0734182001512478,0.37727699530516434,0.6959495180326247,-0.017311774201283818
102,3.366849936490655,155.88282775878906,1.0051529007030524,120.69122314453125,0.9937520352074267,108.06153106689453,0.9905945401274538,128.31417846679688,1.0,69739.0,-0.0013876901664922614,0.0002897146224079038,0.001080042192331234,-3.459394400122817e-05,0.0009151610877262353,103.0,0.9627826809883118,0.8074391660333529,0.4990464446005822,0.8789891605747416,0.34533748030662537,0.06639778169901689,0.37648948221224854,0.6968577548243555,-0.015114053436081964
103,3.400185084376701,155.74436950683594,1.0042601037505086,120.64469909667969,0.9933689637127977,108.17420196533203,0.9916273885030182,128.57334899902344,1.0,69724.0,0.0012160286797396336,0.0013093275921591426,0.002126391607578093,0.00019574468268374553,0.0019004493945236041,103.0,0.963114857673645,0.8074694509781425,0.49837932419253056,0.8788001008318629,0.34471315145492554,0.06508696748172423,0.37787562388847457,0.6974338145946588,-0.01655935139852177
104,3.4335202322627474,155.95326232910156,1.005607072042367,120.85832214355469,0.9951279013726225,108.30961608886719,0.9928687228623012,128.28076171875,1.0,70205.0,-0.0008923807583078869,0.00160592099035217,0.002472521749055676,0.00047288817715881147,0.0022252146310438444,103.0,0.9647672176361084,0.8092870878142583,0.5010326899793462,0.8831928544471003,0.34387534856796265,0.06288841363693547,0.3668114806637704,0.6963493719227232,-0.014250740021506612
105,3.4668553801487936,155.75604248046875,1.0043353726141515,120.7090072631836,0.9938984667676071,108.42217254638672,0.9939005221638114,128.52345275878906,1.0,70129.0,0.004213868334099702,0.0011829669028295623,0.002100741065093376,0.0007651604679111926,0.001891340390499823,103.0,0.9643097519874573,0.8066990831182536,0.5019036347302828,0.8822367593407976,0.34343406558036804,0.06519059001132217,0.3673801137903007,0.6954627829767636,-0.013048158791668318
106,3.5001905280348398,156.40362548828125,1.0085110727095845,121.42021942138672,0.9997544727907812,109.0032730102539,0.9992274404583155,128.21121215820312,1.0,71448.0,-0.0006490773079671497,0.0003439913156905879,0.0012877002466065814,0.001030540277050085,0.0011592669267992035,103.0,0.9553003311157227,0.8092972044937111,0.5038629492777964,0.8917067082683308,0.34350284934043884,0.053778471138845554,0.34912103907737096,0.6919041761109318,-0.014709364253957054
107,3.5335256759208855,156.6630859375,1.0101841076865576,121.81363677978516,1.0029938077681573,109.46036529541016,1.0034175821076121,128.576171875,1.0,71210.0,-0.001360252897778469,-0.00042843973336055427,0.0004947638810117545,0.0012259615098486835,0.0004525720240603886,103.0,0.9453478455543518,0.8113139540326734,0.509254318213734,0.8899136455091916,0.3425980508327484,0.05492445544183257,0.3396011796096054,0.6877320752463506,-0.01476446790236786
108,3.5668608238069317,157.0462646484375,1.0126548942274747,122.2359390258789,1.0064709762448225,109.8585433959961,1.0070676604337705,128.64227294921875,1.0,71388.0,-0.003245568220757722,-0.0006770382068801313,0.00017192737005687986,0.0013079154219014328,0.0001816683876157128,103.0,0.9306253790855408,0.8126762667862012,0.5145262509105172,0.89170351495166,0.34359583258628845,0.052374528466861525,0.3294531293774864,0.6827022994494248,-0.014615001018779676
109,3.600195971692978,157.5010528564453,1.0155874281894064,122.62347412109375,1.0096618776173512,110.4200210571289,1.0122146974971022,128.6253204345703,1.0,70784.0,-0.0006398902066005463,-0.00017213297784840343,0.0005589088686952338,0.0012422712796362608,0.0005728957222619839,103.0,0.9118165969848633,0.8151606766124172,0.5230278028933092,0.8875402806164031,0.34291908144950867,0.05909495567564856,0.31973327305605787,0.6754777462718071,-0.01493938358674165
110,3.633531119579024,157.83961486816406,1.0177705204070657,123.01451110839844,1.0128816130036606,110.75597381591797,1.0152943592908186,129.0340576171875,1.0,71592.0,-0.003102971995911419,0.000980051761112049,0.0015727679005683515,0.0010073602430487676,0.0015601357107936603,103.0,0.8936640024185181,0.815277312176407,0.5251285059783216,0.8955716787590693,0.34086328744888306,0.05060045033775332,0.31302380154207177,0.6709801512942848,-0.01730532944580775
111,3.66686626746507,155.45101928710938,1.0023685430922922,120.50588989257812,0.9922260311491243,108.32209777832031,0.992983141872487,129.95303344726562,1.0,71168.0,0.00618806387191051,0.002375094893382466,0.0028340963532109127,0.0006047885598439775,0.002803037097358344,103.0,0.9633169770240784,0.8188043315347722,0.527048673561151,0.8870497320204412,0.3375874161720276,0.05616352985167643,0.3068654451438849,0.6869770348154827,-0.01812077883265096
112,3.700201415351116,155.68731689453125,1.0038922210300367,120.837158203125,0.9949536409058957,108.563720703125,0.9951980868924033,130.06741333007812,1.0,71616.0,0.0029846751160160223,0.0034767386603768193,0.003820882957264169,5.752551349539791e-05,0.0038098528245079535,103.0,0.9666034579277039,0.8228561587727138,0.5366538203753352,0.8934800509020137,0.33460733294487,0.051139057314669265,0.2958975647899911,0.6872193600241199,-0.016950926488994184
113,3.733536563237162,156.2205810546875,1.0073307782151262,121.2240219116211,0.9981390141886364,108.97061157226562,0.9989280347232267,130.03643798828125,1.0,71562.0,0.0031536529483097153,0.0038343981460837104,0.004082009032179094,-0.0005826751619006256,0.004136026669401888,103.0,0.9557976126670837,0.826532703576386,0.5458483552723512,0.8915938851027247,0.333374947309494,0.05706240733588328,0.28696794388083063,0.6825195474844729,-0.013926943930485786
114,3.7668717111232084,156.7399444580078,1.010679701498544,121.60139465332031,1.001246240383919,109.25279998779297,1.0015148415262467,130.01275634765625,1.0,71377.0,0.0011409609628978967,0.003256992912522035,0.0034189394118435148,-0.0012449339281767014,0.0035582324116337355,103.0,0.9437036514282227,0.8288337513017732,0.5521806744469507,0.8901762218924211,0.3322979211807251,0.05496177493982515,0.28007621502724966,0.6789140221324883,-0.014518800003783307
115,3.8002068590092546,156.71432495117188,1.0105145035612153,121.79714965820312,1.00285805547234,109.46949768066406,1.003501298217143,129.72756958007812,1.0,71296.0,-0.000343151510155959,0.0018791513585021758,0.0019634305870356457,-0.0018446161656670535,0.0021717344768275625,103.0,0.9381227493286133,0.8267410981448234,0.5551503590664273,0.8891660327001983,0.3332395553588867,0.061895913098786524,0.27979129263913827,0.6759338193931399,-0.009628890394321086
116,3.8335420068953003,157.27273559570312,1.0141152085728191,122.00865936279297,1.004599592213173,109.70462799072266,1.005656725769047,129.8533935546875,1.0,70382.0,0.0016005139318872597,0.00010878565662447327,0.00012742579565132886,-0.0022966649236073724,0.00036246575060855314,103.0,0.9228449463844299,0.8344368351756605,0.5654002443806655,0.8756920856506538,0.3321171700954437,0.07084468664850137,0.27117728964792137,0.6704989116970637,-0.011236829739340926
117,3.8668771547813465,157.34844970703125,1.014603423084448,122.14105224609375,1.0056896938278495,109.69609832763672,1.0055785347828687,129.9202117919922,1.0,70366.0,-0.0017772308769335998,-0.0015124601580596257,-0.0015466885533183317,-0.0025304962019131808,-0.0013281510070224875,103.0,0.9213156700134277,0.834801845588305,0.566054628655885,0.87549301382305,0.3318794071674347,0.07398006793326117,0.27103999090469827,0.6696604739326358,-0.009558842181637762
118,3.9002123026673927,157.2838134765625,1.0141866402002762,122.12256622314453,1.0055374829010726,109.63914489746094,1.0050564455951934,129.90541076660156,1.0,70334.0,-0.0027214387719536326,-0.002484942619792098,-0.0025735075652659643,-0.002500310972216966,-0.0023905034173644342,103.0,0.9217990636825562,0.8343901953535986,0.5659282850399522,0.8750948701678425,0.33113420009613037,0.07207644358179986,0.2707225523928683,0.6699400844968444,-0.00964068300701671
119,3.933547450553439,157.32765197753906,1.0144693165992908,122.16889190673828,1.005918921096446,109.63250732421875,1.0049955993000457,129.92747497558594,1.0,70358.0,-0.0038618245052426947,-0.002508920614293949,-0.0026815238434239547,-0.0021956744534826064,-0.002521623699077732,103.0,0.923348605632782,0.834304556695756,0.5643281503169505,0.8753934779092482,0.3301461637020111,0.06998618939195998,0.27070127064441857,0.6706405265735169,-0.008216287804082737
120,3.9668825984394847,157.17564392089844,1.0134891487305184,122.09136962890625,1.005280615183536,109.6567153930664,1.0052175134316592,130.3914031982422,1.0,70753.0,-0.002153172065794462,-0.0015772151147343575,-0.001889741673334367,-0.0016419396197400451,-0.001720086285373557,103.0,0.9270525574684143,0.8341177523685687,0.5599338543948666,0.8803080636532169,0.3292873799800873,0.06151319472957337,0.272285274122652,0.673201633508616,-0.008520029991546342
121,4.000217746325531,155.74520874023438,1.0042655152374371,120.73357391357422,0.994100744598487,108.35724639892578,0.9933053474836886,130.8641357421875,1.0,71351.0,0.0023899253044855073,2.621760072996743e-05,-0.00048681840334819775,-0.0008964242225777469,-0.00027776591471391325,103.0,0.9641162157058716,0.826365432860086,0.546957996384073,0.8877483732099088,0.3296035826206207,0.05694698468391127,0.30682120783170524,0.6885548645154004,-0.005773271823429356
122,4.033552894211577,155.3577117919922,1.001766884136506,120.4905014038086,0.9920993248184148,108.21275329589844,0.9919807865827668,130.400634765625,1.0,72715.0,0.004089138506775392,0.0018194318301821108,0.0010707960257771109,-3.845826668005087e-05,0.0013249834070558364,103.0,0.9580807685852051,0.8164065186000138,0.530674551330537,0.9031236415574737,0.3355461657047272,0.04922064211637583,0.2987004056934608,0.684666274266376,0.0024473535165738247
123,4.066888042097623,154.7356719970703,0.9977558900250445,119.88328552246094,0.9870996073395648,107.37970733642578,0.9843442967886511,129.65809631347656,1.0,73008.0,0.0014611875852425515,0.003273130679439135,0.0023023439032415823,0.0008434961715660684,0.002577074282068868,103.0,0.9444097876548767,0.8155818540433925,0.5259971509971509,0.9095869930854046,0.3381381630897522,0.04730579953902697,0.2779695375849222,0.6772437973131378,0.026120293223965904
124,4.100223189983669,153.9333038330078,0.992582114958639,118.8544921875,0.9786286892082525,106.28473663330078,0.9743067562373916,129.19566345214844,1.0,73169.0,0.004510192449540651,0.0039688267278988965,0.002842163496885636,0.00166540808706512,0.003094691944521027,103.0,0.9227035641670227,0.8141061560679158,0.5182112643332559,0.9098924330037929,0.33883026242256165,0.04349934713672822,0.2535636676734683,0.667249960248156,0.04345925253447776
125,4.133558337869715,153.30215454101562,0.9885123816163347,117.77222442626953,0.9697174712891647,105.1186294555664,0.9636171112539976,128.58261108398438,1.0,72923.0,0.008729942909313948,0.0037186060506829988,0.0025372465101891253,0.0023562989818478944,0.0027293217001804603,103.0,0.8977466821670532,0.8142058518345835,0.5143644666291842,0.9029370248384141,0.34000661969184875,0.05063024689829375,0.2284327304142726,0.6548635474878075,0.05617368648120352
126,4.166893485755762,152.53396606445312,0.9835590016539294,116.97598266601562,0.9631613452581782,103.99771881103516,0.9533417805837701,127.9670639038086,1.0,73086.0,0.005026369389129426,0.0026142025002525607,0.001480223506380373,0.00286335644115013,0.0015981644454818986,103.0,0.8741647005081177,0.8116739183975042,0.5056508770489561,0.9079570159637245,0.34109407663345337,0.04336915336356295,0.21283145882932436,0.6465031860342251,0.06289048138917085
127,4.2002286336418075,152.269775390625,0.9818554655688133,116.30034637451172,0.9575982651745671,102.9056167602539,0.9433305368221376,127.08839416503906,1.0,72306.0,0.0015493558239386696,0.0009901526669832109,-2.832358521093731e-05,0.003152615330795532,3.1927391197011614e-05,103.0,0.8550742864608765,0.8109700439797528,0.5008712969878019,0.8999103898043511,0.34070727229118347,0.049907900632249716,0.1973695129034935,0.6374512188907084,0.06925647106003277
128,4.233563781527853,151.82289123535156,0.9789738979746817,115.68863677978516,0.9525615471856587,102.1872329711914,0.9367451492921307,126.00142669677734,1.0,72714.0,0.002272821504143485,-0.0006905994833524833,-0.0015776042871730542,0.0032045745876997556,-0.0015417856314437234,103.0,0.8370609283447266,0.8090693218178985,0.4957229694419232,0.9027076013953893,0.3414314389228821,0.044046628843838066,0.18102428693236516,0.6302364932212203,0.07482491543662084
129,4.2668989294139,150.2982177734375,0.969142603694857,114.08750915527344,0.9393781209676648,100.5976333618164,0.9221733708017738,126.45829010009766,1.0,73778.0,0.007520171300326783,-0.0019936852487222848,-0.00277801242182615,0.0030120239015183313,-0.0027371641410804874,103.0,0.7995672821998596,0.9547290520209276,0.9072216649949849,0.918390718749222,0.34657523036003113,0.05102447282595165,0.16294830437257718,0.6452633761765136,0.08327760373485213
130,4.300234077299946,151.33306884765625,0.9758154590311499,114.6371841430664,0.9439040560240006,100.53958129882812,0.9216412105031775,124.32131958007812,1.0,71605.0,-0.0026243221633615588,-0.002661678824174407,-0.0033882266191916366,0.002574621054582562,-0.0033369483291702208,103.0,0.805018961429596,0.811707748527803,0.4909433698764053,0.8972720323797351,0.3378712832927704,0.04280540831798303,0.15512883178548983,0.6177731910891803,0.08359523523805283
131,4.333569225185991,155.46983337402344,1.0024898587901638,120.64733123779297,0.9933906363375348,108.2641372680664,0.9924518208331342,127.74058532714844,1.0,71554.0,0.0014629302887892992,-0.002703141364847878,-0.003397012275359854,0.0019061378285242293,-0.0033537447240898958,103.0,0.9641324281692505,0.7976772786986053,0.4753053637812002,0.8983553044569994,0.3438187539577484,0.04426867545511613,0.390278670654331,0.7015413088400813,-0.008609708577278146
132,4.366904373072038,155.09814453125,1.0000931604248327,120.12848663330078,0.989118553677033,107.74468994140625,0.9876900737008006,127.2254409790039,1.0,72099.0,0.003824601639887515,-0.0023861811611213157,-0.0030276352893258635,0.0010325292034910401,-0.003023623336514085,103.0,0.9520261287689209,0.7955635075844788,0.4691327202873826,0.9088491113071978,0.3461636006832123,0.04171183663179125,0.366523807542407,0.6937501013565208,0.0030446071056623343
133,4.400239520958084,154.44248962402344,0.9958654116642139,119.39437103271484,0.9830739644090448,107.00099182128906,0.9808726309899891,126.81766510009766,1.0,71668.0,0.006215494959914192,-0.002129837642528234,-0.002655231844701306,4.6340134305018906e-06,-0.002710748189808246,103.0,0.9346213936805725,0.794054994325687,0.46161466763409054,0.9037009015824979,0.34751999378204346,0.04751276716474371,0.3429145504269688,0.6834472146243153,0.021001323617845444
134,4.43357466884413,153.3563995361328,0.9888621604532637,118.44983673095703,0.9752968215461292,105.9278793334961,0.9710354635830952,126.70233154296875,1.0,72356.0,0.005626866256068674,-0.0023283837041351016,-0.0026591699216674653,-0.0011002162199134223,-0.0027691013831346385,103.0,0.9124020934104919,0.7931938378756888,0.4562717673724363,0.9141629816803537,0.35066497325897217,0.03720783322804801,0.32470009397976674,0.6757260564072264,0.03528687379437065
135,4.466909816730176,152.77101135253906,0.985087500734574,117.75730895996094,0.9695946597489877,104.90882873535156,0.9616938787594388,126.0843734741211,1.0,71690.0,0.0020690915814363664,-0.003177105793311922,-0.0032611531652101157,-0.002177501791286499,-0.003394669779059718,103.0,0.8933672904968262,0.7913191054075418,0.44910029292788395,0.9067796610169492,0.35067564249038696,0.04137364027321022,0.31021062909750313,0.6670279870815019,0.04640413520381387
136,4.500244964616222,152.6587371826172,0.9843635421742017,117.28817749023438,0.965731907009608,104.2628173828125,0.9557719256613524,125.1673355102539,1.0,71263.0,0.0022132040013849164,-0.004569769695354894,-0.004411213048638173,-0.0031032248284271627,-0.004528332697968112,103.0,0.8766894936561584,0.7918555210979049,0.44237542623801973,0.9025774175163067,0.34993675351142883,0.039769488949401556,0.30026802127331154,0.6612339636563788,0.052804070766477404
137,4.5335801125022686,152.43212890625,0.9829023423128145,116.51638793945312,0.9593771165214693,103.43865203857422,0.9482168440138482,124.31806182861328,1.0,70305.0,0.006711247160733735,-0.006108426055555025,-0.005770821577168829,-0.003750268430656595,-0.0058460792765114246,103.0,0.859197735786438,0.7942061968091411,0.4399829315126947,0.8932496474265313,0.347890168428421,0.04759424193527895,0.28640921698314487,0.6533074379954221,0.06300916165409237
138,4.566915260388314,151.5485382080078,0.9772048337023941,115.90773010253906,0.9543655262134154,102.59769439697266,0.9405078282334474,123.48218536376953,1.0,70384.0,0.002398596322772728,-0.007225955115679854,-0.006808957288265584,-0.004012184098510363,-0.006849949834442889,103.0,0.8405590057373047,0.7952186102902176,0.4365480791088884,0.8946398383181015,0.3469133675098419,0.04133565518030328,0.2747073198454194,0.647511232632605,0.07051168097091144
139,4.600250408274361,151.81195068359375,0.9789033518632674,115.53590393066406,0.9513039695780859,101.98211669921875,0.9348648588955266,122.1002197265625,1.0,69587.0,0.002675371977480412,-0.007384895712579963,-0.006984376810922411,-0.00382438175813731,-0.007029411929071601,103.0,0.824000895023346,0.7942048562710468,0.4338885136591605,0.8806585924547882,0.34324032068252563,0.04810357264892365,0.2640148303562447,0.639947589457467,0.07673033596671675
140,4.633585556160407,152.4445037841797,0.9829821371473432,115.7791748046875,0.9533070226574136,101.84516906738281,0.9336094669439163,120.28356170654297,1.0,68544.0,-0.0028650298567257093,-0.006284960292972778,-0.00595053057764044,-0.0031890675216727157,-0.006052148417230492,103.0,0.81284099817276,0.7947644335511983,0.43456757703081234,0.8697042366107114,0.3347327709197998,0.048240772461395964,0.2534284547152194,0.6351303036026502,0.0853732218627226
141,4.666920704046452,154.92832946777344,0.998998170642503,121.1530990600586,0.9975550468855745,109.69649505615234,1.0055821715729236,126.46713256835938,1.0,72002.0,0.011362856743370675,-0.003996264393390789,-0.0037043092074346036,-0.0021776505209614287,-0.0038965037207143844,103.0,0.9445047974586487,0.9223817856911382,0.8236437876725646,0.9176437601957586,0.3562094569206238,0.05083860114192496,0.34874031276908973,0.7122164428739998,-0.007945588003097736
142,4.700255851932499,154.0982208251953,0.9936455213354402,120.27963256835938,0.9903630648905613,108.66199493408203,0.9960989617519405,126.3203125,1.0,72974.0,0.011070628686102035,-0.0009562538648800682,-0.000616538023233838,-0.000934614470724197,-0.0008971360226101136,103.0,0.9289725422859192,0.8991375923845023,0.7655877435799052,0.9287650659912691,0.3590638041496277,0.04438024207404768,0.32334804176830106,0.6996394236701928,0.003543440953697949
143,4.733590999818545,153.19293212890625,0.9878081011902482,119.20146179199219,0.9814855808830208,107.47013854980469,0.9851732751063357,126.03375244140625,1.0,72827.0,0.013037994727099544,0.0021727551901825305,0.0026729243210406803,0.0003515334746009118,0.0023470922354975037,103.0,0.9122473001480103,0.8633885784118527,0.6549768629766433,0.9259513547189483,0.3630346953868866,0.04666183519599242,0.3005478737281503,0.6833832218336444,0.021076773902086562
144,4.766926147704591,152.52565002441406,0.9835053787380008,118.26167297363281,0.9737475115638342,106.45825958251953,0.9758974322567467,125.43940734863281,1.0,72382.0,0.015999065212549846,0.004725129318984256,0.005458942813548612,0.001475033864543513,0.005149441599100207,103.0,0.8961309194564819,0.8452147403129692,0.5966676798098974,0.9227807595711317,0.36453795433044434,0.04686444243297339,0.2799452902655356,0.6715664251905458,0.033896180076641566
145,4.800261295590637,152.00328063964844,0.9801370724923115,117.43038940429688,0.9669028569374343,105.59422302246094,0.9679768532087346,124.99964141845703,1.0,71713.0,0.01961546984780005,0.006243413764151527,0.007198899737465412,0.0022563038016688527,0.006957890707130862,103.0,0.8799910545349121,0.8125351516926266,0.4897159510827883,0.9143334353325173,0.3635503947734833,0.055130558955528354,0.2608732029060282,0.6558585451205744,0.04067623053577604
146,4.833596443476683,151.5740966796875,0.9773696380770371,116.77086639404297,0.9614724510087357,104.5864486694336,0.9587386371485589,124.0083999633789,1.0,71976.0,0.016294029544035082,0.0066049028361926925,0.007681805078785791,0.0025775011243764512,0.007527966853828599,103.0,0.8627700209617615,0.7836547367641066,0.4044959430921418,0.9162380976628138,0.36486735939979553,0.04739294261418606,0.249485939757697,0.6447377697265314,0.04764449605649645
147,4.86693159136273,151.0933074951172,0.974269446410991,116.0476303100586,0.9555174419229943,103.76639556884766,0.9512212522287381,123.32999420166016,1.0,71277.0,0.017989153592677443,0.006027853706916608,0.007079192408847772,0.002411852591970116,0.0069939198530873554,103.0,0.8493727445602417,0.7748923215062362,0.37559100411072294,0.9093193850864324,0.3633069396018982,0.04951202398418065,0.23588254275572765,0.6365762351549844,0.05285253953333291
148,4.900266739248775,150.74412536621094,0.9720178742860172,115.43123626708984,0.9504421529439739,103.00365447998047,0.9442292435952959,122.78050231933594,1.0,70236.0,0.0185910703455473,0.004965622549723888,0.005862176069376596,0.0018306326411810644,0.005802048210821471,103.0,0.8407295942306519,0.7696812650682462,0.3649268181559314,0.8961302422904679,0.36203184723854065,0.05144366331959631,0.2239592231903867,0.6306795100782541,0.0598104784521814
149,4.933601887134821,150.72544860839844,0.9718974441041885,115.0681381225586,0.9474524614758887,102.45750427246094,0.939222712516966,121.88280487060547,1.0,69606.0,0.018241480454054104,0.003931446211036028,0.004617518327882952,0.0009942850482472863,0.004539349473576654,103.0,0.8293601870536804,0.7624151174707161,0.34186708042410135,0.8860121434299462,0.3601331114768982,0.05753490917885465,0.21358790908829697,0.623335066606606,0.06424213223203994
150,4.966937035020868,151.64358520507812,0.9778177091947233,116.13239288330078,0.9562153632587319,103.22219848632812,0.9462326253476011,119.70797729492188,1.0,69195.0,0.0086671674771448,0.003316150565400134,0.003831974322688055,0.00011780238185426356,0.0037115486537637105,103.0,0.8366574048995972,0.757872678661753,0.32867981790591805,0.8807805399625769,0.35784807801246643,0.05447995824900396,0.21789146614639787,0.6256003868666888,0.07833627737401344
151,5.000272182906913,154.79478454589844,0.9981370554861592,121.5904541015625,1.0011561576480552,110.57371520996094,1.0136236039519875,124.53834533691406,1.0,71743.0,0.01510737567815118,0.003264407559820378,0.0037259207829621697,-0.0005701399141972524,0.0035692826007846282,103.0,0.9419847726821899,0.9005942507747563,0.7685488479712307,0.9144011521941396,0.37532123923301697,0.06017155456990275,0.3138145881828192,0.6987505122308781,-0.010798231444652615
152,5.03360733079296,154.64236450195312,0.9971542310692582,121.22001647949219,0.9981060341075146,110.19477081298828,1.010149840005217,124.6393051147461,1.0,71394.0,0.01732347332627049,0.003656910301047564,0.0041986583652883,-0.0008830173981033922,0.0040338904864518545,103.0,0.9455122947692871,0.8473774640259218,0.622335210241757,0.9099529690666462,0.3755500018596649,0.061420614588511196,0.31254727288007395,0.6885357227393591,-0.009723653513888169
153,5.066942478679006,154.5175018310547,0.9963491002049573,121.27256774902344,0.9985387327718315,110.19526672363281,1.0101543859927855,124.81700897216797,1.0,71369.0,0.015129221281347693,0.004202110878207201,0.004903375805258931,-0.0007154840522106673,0.004766017791071036,103.0,0.945570170879364,0.8473800482936102,0.6224411158906528,0.9096343313067972,0.37524130940437317,0.06173925234836029,0.3110033768162648,0.6881909473660784,-0.010977715540440235
154,5.100277626565052,154.3480987548828,0.9952567669707562,121.26127624511719,0.9984457603526693,110.1908187866211,1.0101136119812095,125.18405151367188,1.0,71506.0,0.01434854698403143,0.0045891900390426735,0.0054163837371735074,-7.348564716561056e-05,0.005331681738128617,103.0,0.9465318918228149,0.7568362561649838,0.3519564791765726,0.9113804662307702,0.37405073642730713,0.05741852432480659,0.3117920174530809,0.6711716637873476,-0.011560739563066665
155,5.133612774451098,154.37599182128906,0.9954366251181278,121.35147857666016,0.9991884717795304,110.23429870605469,1.010512190183562,125.45301055908203,1.0,71764.0,0.012841208399853143,0.004627209078139628,0.005426161643945858,0.0009210840650396588,0.005400474933891237,103.0,0.9474202394485474,0.7551000501644278,0.3460648793266819,0.9146688079124129,0.37338292598724365,0.05356938018582954,0.31161863887185776,0.6716276968396613,-0.014416260568634277
156,5.166947922337144,154.16836547851562,0.9940978232519978,121.32238006591797,0.9989488793425814,110.27780151367188,1.0109109782007253,125.89463806152344,1.0,71600.0,0.013233770529068212,0.004309707850360712,0.004860268454988751,0.002052138611802443,0.0048844698987521515,103.0,0.9493975043296814,0.7511778398510242,0.3338268156424581,0.9125785442078028,0.3723333179950714,0.05363310773779936,0.3125558659217877,0.6715148199989348,-0.016172242056251677
157,5.200283070223191,154.05130004882812,0.993342970020797,121.24608612060547,0.9983206873212154,110.27159881591797,1.010854118386984,126.11554718017578,1.0,71244.0,0.014542684780600723,0.0037833509737337347,0.0038949556791158923,0.0030511198009806713,0.003954776627034549,103.0,0.9495373368263245,0.7516843523665151,0.3342456908651957,0.9080411425075517,0.37296926975250244,0.059776443747689874,0.3131632137443153,0.6707896164291168,-0.01342486681725285
158,5.233618218109236,154.10791015625,0.9937079994117973,121.4437484741211,0.9999482072101705,110.39266204833984,1.0119638988598614,126.701904296875,1.0,70945.0,0.01168933727997773,0.003239301264873297,0.0028426080673950816,0.0036527816579567866,0.002928521668572544,103.0,0.9487146735191345,0.7440740479714333,0.32939601099443233,0.905788774832746,0.37061023712158203,0.05853888974005413,0.306434561984636,0.6679141680125888,-0.01220959224452136
159,5.266953365995282,154.34303283691406,0.9952241012678418,121.83378601074219,1.003159713281,110.75020599365234,1.0152414859584833,127.35595703125,1.0,70304.0,0.00904012469348403,0.002776185178045314,0.0019670860162497987,0.00365387438814865,0.002078322454390205,103.0,0.9447933435440063,0.745600060688818,0.3386151570323168,0.903336888226451,0.36924484372138977,0.05907975381294409,0.30139110150204823,0.6661438077141038,-0.01269905041218261
160,5.300288513881329,155.2910919189453,1.0013373104650483,122.5943603515625,1.0094221595419979,111.26490783691406,1.0199597314866997,127.58193969726562,1.0,70557.0,0.00335618523246467,0.0023008901966526797,0.0013147408236453553,0.00295817559498904,0.001452839776452234,103.0,0.9318446516990662,0.7483264122151829,0.35406834190796094,0.9096851551017251,0.36837393045425415,0.04935406513498879,0.29496718964808594,0.6637232328758221,-0.013533004501466897
161,5.3336236617673745,153.71653747558594,0.9911843770803233,120.57998657226562,0.992836131240275,109.22660064697266,1.0012746735060891,128.75987243652344,1.0,69564.0,0.011296580196353823,0.0015278955000435374,0.0006503662875587953,0.001606321223598024,0.0008130859788743971,103.0,0.9592987298965454,0.7592816207616967,0.3756540739462941,0.8956469118953507,0.36757558584213257,0.05213148102846696,0.2828618250819389,0.6699123346783088,-0.016500401226504
162,5.366958809653421,153.87112426757812,0.9921811729725671,121.03643035888672,0.9965944156465015,109.67266845703125,1.0053637543548244,129.32273864746094,1.0,70383.0,0.007992375080515646,9.786686759949092e-05,-0.0004540549226485349,-0.00023062720434531328,-0.0002797101093932533,103.0,0.9651447534561157,0.7640576086081392,0.38963954363979936,0.9065418153247723,0.3625180721282959,0.040469351743324875,0.26760723470156145,0.671144060747037,-0.014571445440045294
163,5.400293957539467,154.5511932373047,0.9965663468074718,121.91410827636719,1.0038210738410942,110.4652099609375,1.0126289418719987,129.94569396972656,1.0,70056.0,0.002700515879091203,-0.0022266402155677943,-0.0024005118593621016,-0.002274417250636089,-0.0022314048625846133,103.0,0.9475803375244141,0.7683377107837539,0.39621160214685397,0.9035170305789494,0.35922959446907043,0.04179939899660807,0.25832191389745346,0.6655391054778877,-0.012360562375008105
164,5.433629105425513,155.57435607910156,1.0031638348894503,122.8906478881836,1.0118617432569728,111.05970764160156,1.0180786717691226,130.1890869140625,1.0,70343.0,-0.007025654356687117,-0.005377152862633613,-0.005306764057169221,-0.00419593229059334,-0.005154731573755123,103.0,0.9217298626899719,0.7720218548161627,0.40278350368906646,0.9056300130032315,0.35712212324142456,0.038404593616829526,0.2509418136843751,0.6588804643939078,-0.014390124279339528
165,5.466964253311559,156.23561096191406,1.0074276930264834,123.50309753417969,1.0169045547084885,111.94532775878906,1.02619710618377,130.43023681640625,1.0,69970.0,-0.003292069073837889,-0.008894867433707146,-0.008831389865800208,-0.005672767276675973,-0.008689512704676288,103.0,0.894317090511322,0.7757896241246248,0.4172645419465485,0.8971893111760784,0.3572767674922943,0.04640457506283018,0.24490495926825784,0.6502934572963542,-0.016830591733420355
166,5.500299401197605,156.94586181640625,1.012007483609474,124.30250549316406,1.0234867507083618,112.6260757446289,1.0324374882264626,131.0175323486328,1.0,70476.0,-0.008342959900664249,-0.011994240902373865,-0.01218294729137351,-0.006455829031451605,-0.012028712670506652,103.0,0.8645005226135254,0.7776548044724446,0.4208382995629718,0.9034805461188385,0.3559474050998688,0.0406384206140632,0.240379703728929,0.643229884995406,-0.022407089022763716
167,5.533634549083651,157.3394317626953,1.0145452741976337,124.89463806152344,1.0283622746245877,113.49649047851562,1.0404165356684327,131.8490753173828,1.0,70042.0,-0.005944253096331342,-0.013774051867626397,-0.014344113116358633,-0.006408930682825843,-0.014150578473049475,103.0,0.8387844562530518,0.7795751120756118,0.42698666514377087,0.8984811945199856,0.35340824723243713,0.046898250295038225,0.23628679934896205,0.6353647763009715,-0.02948847303745323
168,5.566969696969697,158.07420349121094,1.0192831785896102,125.67622375488281,1.0347977249682698,114.11139678955078,1.0460533504385683,132.06387329101562,1.0,70410.0,-0.011598926816632993,-0.013527772932063191,-0.01444770440825979,-0.0055378270804350045,-0.01420587946355624,103.0,0.8138758540153503,0.7833262320693084,0.4376509018605312,0.9030975437696402,0.35147103667259216,0.04207015968703905,0.22992472660133503,0.62938792968804,-0.03329115401841056
169,5.600304844855743,158.77928161621094,1.0238296147349866,126.40180969238281,1.0407720823682693,114.79178619384766,1.0522904453825574,132.49481201171875,1.0,70516.0,-0.014634822565990302,-0.011053852876333647,-0.012160274678081586,-0.003979349856648544,-0.011886189154203992,103.0,0.7883569002151489,0.786757615292983,0.4469198479777639,0.9011744559035898,0.3501797020435333,0.04531687305908063,0.2244171535538034,0.6220734791336917,-0.040508776463748945
170,5.63363999274179,159.1077423095703,1.0259475723281601,126.92312622070312,1.0450645184502634,115.3722915649414,1.0576119084919795,132.6830596923828,1.0,71034.0,-0.016149806124671817,-0.006827865097355336,-0.007900422883440738,-0.0019751779272037797,-0.007630251049296564,103.0,0.7652580738067627,0.78820940207037,0.4531914294563167,0.9062308634415187,0.3490315079689026,0.04107981220657277,0.2193034321592477,0.6162443153445626,-0.04631583675206995
171,5.6669751406278355,153.61676025390625,0.9905410004798512,120.8404541015625,0.9949807788012186,109.48054504394531,1.0036025688325152,133.3260498046875,1.0,70956.0,0.008358512399262663,-0.0019182407177146372,-0.002768845153804742,0.00018370255972638086,-0.0025345548500958375,103.0,0.9620834589004517,0.7923877708251122,0.46086307007159366,0.9058366950926824,0.346569299697876,0.043877342593065416,0.38695811488809967,0.6993696670528649,-0.023551355717663425
172,5.700310288513881,153.88131713867188,0.9922468979410816,121.27588653564453,0.9985660591247609,109.91009521484375,1.0075402333260841,133.27499389648438,1.0,70888.0,0.005987961935994768,0.00236620398092611,0.0018137339361581103,0.002202590190908955,0.001995313943083304,103.0,0.9623216986656189,0.7939519617800851,0.46706071549486516,0.9027098614506928,0.3441344201564789,0.045907192339038304,0.36822875521950116,0.6956714172920759,-0.02186708750573376
173,5.733645436399928,154.55313110351562,0.9965788424227433,121.79402923583984,1.0028323624186661,110.52899932861328,1.013213695749849,133.1845245361328,1.0,70651.0,0.0073560534306887915,0.004960819948510222,0.0046276262388199796,0.0038448746081917243,0.004760770624604524,103.0,0.9506208300590515,0.7975872009360566,0.4772331601817384,0.8952003243708978,0.34457656741142273,0.05121512379311219,0.35056828636537346,0.689091885168151,-0.019397609814595436
174,5.766980584285974,155.35757446289062,1.001765998620463,122.51427459716797,1.00876274637717,111.05916595458984,1.0180737061519325,132.8214569091797,1.0,70941.0,0.0022217463722887243,0.005439930566196513,0.00511729472814777,0.004954376816707458,0.005211334159151376,103.0,0.9310813546180725,0.8004351033487921,0.48440253168125624,0.8983853606027987,0.34444451332092285,0.04605838029506743,0.3354618626746169,0.6825803910119892,-0.02236380624422225
175,5.80031573217202,155.8873748779297,1.005182221123138,123.01043701171875,1.0128480675497196,111.58055877685547,1.0228532875431886,132.62692260742188,1.0,71219.0,0.0014990537850512187,0.004144049033355599,0.0035962250119220248,0.005474977927525647,0.0036582328861791587,103.0,0.9120675325393677,0.8018927533382946,0.4891250930229293,0.8983563959282012,0.34450581669807434,0.04652042837140659,0.3251098723655204,0.6759741397361799,-0.02324094117001799
176,5.833650880058066,156.24375915527344,1.0074802336450264,123.28583526611328,1.0151156522892446,111.82267761230469,1.0250727785506732,132.3352813720703,1.0,71333.0,0.0005818734645030577,0.001999914355997202,0.0011032804235668846,0.005436540795832954,0.0011352346189087159,103.0,0.8954522609710693,0.804157963354969,0.49465184416749614,0.8962783334170981,0.34343403577804565,0.04711765592802935,0.3186042925434231,0.670876691473961,-0.024489107279740036
177,5.866986027944112,156.60911560058594,1.0098360998817144,123.51643371582031,1.0170143626738235,112.2189712524414,1.0287055821240714,132.390625,1.0,70809.0,0.003884685642350505,0.00013007730223498336,-0.001030789398178458,0.004932415204679186,-0.0010235499613344612,103.0,0.8821970820426941,0.8058438899010013,0.50095326865229,0.8920706510784117,0.34432512521743774,0.049763152590203585,0.3137736728381985,0.6665106786440809,-0.023676163926080122
178,5.900321175830158,156.9766082763672,1.0122057408124028,123.98849487304688,1.0209012379868236,112.54722595214844,1.0317146762030702,132.15823364257812,1.0,71587.0,-0.000803212401783826,-0.000583910623785946,-0.0017277282402718757,0.004084093592944104,-0.0017333454245966556,103.0,0.8652858734130859,0.8076652651086557,0.5055945911967257,0.899628019202252,0.34408777952194214,0.042928594767134995,0.30811460181317835,0.6626088665748967,-0.028619752408957998
179,5.933656323716204,157.41070556640625,1.0150048570238772,124.41497802734375,1.0244128313862597,112.92081451416016,1.035139343484101,132.24838256835938,1.0,71459.0,-0.002963918517012998,0.00017479675292612703,-0.0005945407347199692,0.003014343809462212,-0.0005976611237701257,103.0,0.8463081121444702,0.809102655602047,0.5092850445710128,0.8989344973771275,0.34276413917541504,0.04599147094712742,0.3019213814914846,0.6564232001032835,-0.03009712239567073
180,5.966991471602251,157.88864135742188,1.0180866496343661,124.91622924804688,1.0285400529666344,113.38142395019531,1.039361726675999,132.5043182373047,1.0,70963.0,-0.005291689588599602,0.0020588012153162616,0.0019308911344672567,0.001823389612270002,0.001935086295915315,103.0,0.8288018703460693,0.8128367365152732,0.5197920042839226,0.8954886743643132,0.3425943851470947,0.04528992365448924,0.29546383326522274,0.6516141937578983,-0.036158467455954156
181,6.0003266194882965,154.09764099121094,0.9936417824899259,120.79367065429688,0.994595571453717,109.41226196289062,1.0029766213134672,132.67030334472656,1.0,71814.0,0.011358256307019865,0.004216563840790826,0.004779345628843178,0.0005882658981921827,0.004780413597905758,103.0,0.95977783203125,0.8145997530657904,0.5265964853649706,0.9042420579458316,0.3402819037437439,0.04789785819514222,0.4658980143147576,0.7183803541726993,-0.025637261142259563
182,6.033661767374342,154.44235229492188,0.9958645261481711,121.26864624023438,0.9985064437019333,109.75337219238281,1.006103561377896,132.8901824951172,1.0,71987.0,0.006695617912931828,0.005652046273836314,0.0067106053788361306,-0.000638419713136796,0.006682477482529238,103.0,0.9601902961730957,0.8167539509448466,0.5311514579021213,0.9084679454820798,0.33800217509269714,0.042453306410903585,0.44430244349674247,0.7154663239058472,-0.024921720940960047
183,6.066996915260389,154.95770263671875,0.9991875726850031,121.88919067382812,1.003615906326916,110.31327056884766,1.0112361212192789,133.25048828125,1.0,71719.0,0.0031562496726271205,0.00563817222207313,0.006841318061045021,-0.0018051012773594353,0.006761192725916162,103.0,0.9488511681556702,0.8207076692833605,0.5373192598892902,0.9072038454240718,0.3357611894607544,0.04104737208272721,0.42497803929223776,0.7097823542208008,-0.024261503476766408
184,6.100332063146435,155.50579833984375,1.0027217656027212,122.3412094116211,1.0073377555959033,110.65353393554688,1.014355298135706,133.346435546875,1.0,71567.0,0.000340679729518345,0.004013896562837631,0.005019735739072157,-0.002853800339523576,0.004882937558345129,103.0,0.9326980113983154,0.8233683122109352,0.5459080302373999,0.9035552862156907,0.33435365557670593,0.03923945155670025,0.4103707015803373,0.7036439933587613,-0.022477348663160767
185,6.13366721103248,156.13693237304688,1.0067914005543541,122.71717071533203,1.0104333602387907,111.08048248291016,1.0182691136791078,133.35443115234375,1.0,70780.0,0.0017820750405419528,0.0012518461577283473,0.0018938062984871847,-0.0037069787092836957,0.001723730286928659,103.0,0.9120795726776123,0.8299378355467647,0.5591833851370444,0.897346501515017,0.3341274559497833,0.046236545507562406,0.3998869737213902,0.696587007741824,-0.02484675691425661
186,6.167002358918527,156.57357788085938,1.009606948007957,123.24198913574219,1.0147546303345656,111.46211242675781,1.0217674958970187,133.53366088867188,1.0,70911.0,-0.00294561015976208,-0.0017158890312726012,-0.001350431651515075,-0.0042736587579278165,-0.0015155161201997865,103.0,0.8920971155166626,0.8327386912232705,0.565807843634979,0.9025085591375953,0.33230721950531006,0.04057476677145512,0.39123690259621213,0.6913274349596293,-0.025593291584221026
187,6.200337506804573,157.0345458984375,1.0125793301918173,123.75745391845703,1.018998884088521,112.05769348144531,1.0272271570285232,133.62290954589844,1.0,71046.0,-0.003214419513909772,-0.0038386562139050852,-0.003467067293436094,-0.0044615386104415915,-0.0035996002466728615,103.0,0.8689083456993103,0.8362234796235303,0.5775131604875714,0.9031347723285791,0.3312433063983917,0.043157145399537286,0.3809644455704755,0.6837595281997028,-0.026909874179413526
188,6.233672654690619,157.49205017089844,1.0155293776932635,124.26197814941406,1.0231530551066121,112.55703735351562,1.0318046168186565,133.79373168945312,1.0,71220.0,-0.005022598730295147,-0.0043313048174459705,-0.003645924986204761,-0.004203184336599387,-0.0037551273989498563,103.0,0.846365749835968,0.8396658242066835,0.5884723392305532,0.9078972528523169,0.33026742935180664,0.04318949582510039,0.37117382757652345,0.6768490484836174,-0.027222095733768208
189,6.267007802576665,158.1318817138672,1.0196550953276107,124.80156707763672,1.0275959431777233,113.146484375,1.037208047580852,133.94638061523438,1.0,71382.0,-0.005001421577991216,-0.002967091995443385,-0.0018226531171310909,-0.0034782878914498966,-0.001954780301817795,103.0,0.8250734806060791,0.8448068140427559,0.605166568602729,0.9083875237016582,0.3299660086631775,0.0438910169124852,0.36199602140595666,0.6706063745352647,-0.03143721348418612
190,6.300342950462711,158.757080078125,1.0236864563080577,125.45001983642578,1.0329351984441217,113.60491180419922,1.0414104284274486,133.8087921142578,1.0,71770.0,-0.010577330717681799,-0.0001692821173721384,0.0013204630478578895,-0.0023363033761723403,0.0011072310712923069,103.0,0.8003330826759338,0.8496307649435697,0.6165528772467604,0.9130578596509084,0.3288089334964752,0.04418350211185181,0.3503274348613627,0.6630055502920736,-0.03633625554117122
191,6.3336780983487575,154.57861328125,0.9967431548440292,121.02548217773438,0.9965042700914355,109.37155151367188,1.002603430703228,134.73265075683594,1.0,71309.0,0.007133269455179669,0.0031454138852702877,0.004655866179945508,-0.0008963234238426227,0.004337949066559938,103.0,0.9619569182395935,0.8557732310554536,0.6299625573209553,0.9111108271791072,0.32632726430892944,0.04814351059208341,0.3706684990674389,0.7080746138897436,-0.02041613697074706
192,6.367013246234803,154.83946228027344,0.9984251433721024,121.23865509033203,0.9982595014183343,109.60114288330078,1.0047080830709054,134.5911102294922,1.0,70965.0,0.007133981559476643,0.005920719596859902,0.007077751406879313,0.0006548158071422735,0.006689705786875236,103.0,0.9644447565078735,0.8618567838605885,0.643190305079969,0.9069820942448525,0.32456153631210327,0.05217080122183454,0.3595716198125837,0.7070495416661093,-0.016720806139184377
193,6.40034839412085,154.98191833496094,0.9993437186805605,121.22067260742188,0.9981114365588983,109.59061431884766,1.0046115682579124,134.21197509765625,1.0,70444.0,0.008302094482337485,0.007364331668167418,0.007927278528401879,0.0020998277164561573,0.007555862609518492,103.0,0.9634225368499756,0.8614454980788522,0.6482028277780932,0.9003233516097287,0.32396623492240906,0.06156461280881357,0.35758900687070583,0.7048121971529953,-0.013670402319599251
194,6.433683542006896,155.81497192382812,1.004715357387209,121.63746643066406,1.001543249571621,109.5718002319336,1.0044391004833904,133.8141632080078,1.0,69829.0,0.0013809650873025658,0.007218833101730888,0.0071922934768705645,0.0032200486947433875,0.006925507147842193,103.0,0.952836811542511,0.8697150658513416,0.6646379011585445,0.89031262749898,0.3230220079421997,0.06948694410444717,0.3452147388620774,0.7000772527715999,-0.013383134089009869
195,6.467018689892941,155.85264587402344,1.0049582839549664,121.69608306884766,1.0020258895016365,109.74236297607422,1.006002640453875,133.8379364013672,1.0,69360.0,0.0032178840469916925,0.005782554778950386,0.005409138655418315,0.00384371171317591,0.005285079260040598,103.0,0.95150226354599,0.8680219146482123,0.6633506343713956,0.8843329253365974,0.3233106732368469,0.07754487964096288,0.34498269896193773,0.6980693078659735,-0.012577916701718466
196,6.500353837778988,155.89398193359375,1.0052248242838668,121.6900863647461,1.001976513608757,109.59703063964844,1.004670386343222,133.68966674804688,1.0,69574.0,0.0008905553380098574,0.0036938593285670476,0.0033385743668107306,0.003875782791735801,0.0033181693903458114,103.0,0.9521658420562744,0.8691608934372036,0.6656940811222584,0.8870614035087719,0.3225899338722229,0.07496940024479805,0.34476959783827293,0.6988324547299962,-0.010188138147636196
197,6.533688985665034,156.1064910888672,1.006595111164854,121.76979064941406,1.0026327858134783,109.33932495117188,1.0023080114495455,133.42236328125,1.0,69256.0,-0.004917705565691766,0.0016076704663900395,0.0015911597928460076,0.0033215283071738183,0.0015812745499784741,103.0,0.9530810117721558,0.8702061915213122,0.6659639598013168,0.8830069359445124,0.32230591773986816,0.08089810281517748,0.34425898117130643,0.6982195910311343,-0.009305687870902087
198,6.56702413355108,156.1564178466797,1.0069170454417686,121.73934936523438,1.0023821371969532,109.34687042236328,1.002377180398857,133.5314483642578,1.0,69782.0,-0.0036179677824722534,-6.984314105213739e-05,0.0003877615077726486,0.0022872524639803876,0.00029870828422019806,103.0,0.9537174701690674,0.8685859772816295,0.6612020291765784,0.8897133822929416,0.3222006559371948,0.07029018767849857,0.34686595397093806,0.7002733237642206,-0.009676645210686516
199,6.600359281437126,156.1705322265625,1.0070080568128401,121.68624114990234,1.0019448527308803,109.28917694091797,1.0018483071989641,133.5948028564453,1.0,70257.0,-0.0031391722303215075,-0.0012722649963298645,-0.00044300655019323816,0.0009605404177107722,-0.0006412029067037746,103.0,0.9491495490074158,0.9631495794013408,0.9271958666040394,0.8957695838433293,0.3223675489425659,0.0689514483884129,0.3458587756380147,0.7180568265175791,-0.008589041067845766
200,6.633694429323172,156.0092010498047,1.0059677722438247,121.54234313964844,1.0007600197593818,109.08638763427734,0.999989347974797,133.38150024414062,1.0,70431.0,-0.003940199108528664,-0.0021754153188251117,-0.0012587981634564975,-0.00042261478260377505,-0.001515486308933292,103.0,0.9551109671592712,0.9619817031326168,0.9243514929505473,0.8973930992304164,0.32312580943107605,0.06680342490189083,0.3514929505473442,0.7207841245415074,-0.008612916845770195
201,6.6670295772092185,155.96217346191406,1.0056645321944815,121.45291900634766,1.0000237158911387,108.87725067138672,0.998072200109753,133.2374725341797,1.0,69955.0,-0.005688041596156546,-0.0029958873587523993,-0.0023237955219219445,-0.0016229746870866234,-0.0025372679998533305,103.0,0.9487664103507996,0.9572153527267528,0.9184046887284683,0.891328168798736,0.32563677430152893,0.07430813923857092,0.333314273461511,0.7134082255471813,-0.006353267297668965
202,6.700364725095264,155.74102783203125,1.0042385561934657,121.38084411621094,0.9994302628885542,108.70882415771484,0.9965282428549479,132.429443359375,1.0,71739.0,-0.008195751230519466,-0.0038136473339327177,-0.0036175494184344293,-0.002441934959366019,-0.0036952973230818236,103.0,0.9458674788475037,0.9541021387715655,0.9124186286399308,0.9081345890931186,0.32995957136154175,0.06178793862980404,0.318432094118959,0.7110876461092122,-0.0035430292857112564
203,6.73369987298131,155.19911193847656,1.0007442114976763,120.89641571044922,0.9954415576488906,108.1075668334961,0.9910165476503516,131.95155334472656,1.0,72170.0,-0.009365710312299713,-0.00451523625474576,-0.004832920522533663,-0.0027566535765463484,-0.004745621675795043,103.0,0.9377955198287964,0.9544824719412498,0.9122627130386587,0.9114675423086638,0.33016666769981384,0.05974993685274059,0.30390744076486076,0.7065668726019827,0.007779664899976363
204,6.767035020867357,154.57278442382812,0.9967055696075434,120.26097869873047,0.9902094719413372,107.32678985595703,0.9838592049459565,131.80569458007812,1.0,72390.0,-0.010244681528760069,-0.004873359579471741,-0.005551360504944976,-0.0025404473468409617,-0.005347864838713826,103.0,0.9194912910461426,0.9531841414560023,0.9090067688907307,0.9133001942923469,0.3310750424861908,0.05856526456561782,0.2926232905097389,0.699663866824185,0.019296518149983316
205,6.800370168753402,153.972412109375,0.9928342902495108,119.48066711425781,0.983784512404412,106.34898376464844,0.9748957064114591,131.59620666503906,1.0,71544.0,-0.010670299387709137,-0.004699878723657613,-0.005485656985409167,-0.0018637091119648654,-0.005260279971958893,103.0,0.905473530292511,0.9546153416079615,0.9135357262663536,0.9066071926400893,0.3295217454433441,0.06646475910484832,0.2811137202281114,0.6928798334835666,0.029708322419527547
206,6.833705316639449,153.36363220214844,0.9889087976315208,118.72730255126953,0.9775814302894332,105.63758850097656,0.9683743823370329,131.21185302734375,1.0,71436.0,-0.006850019530168117,-0.003975281262736032,-0.004649364689792157,-0.0008760152212026708,-0.004481743032274047,103.0,0.9001962542533875,0.8383634768650726,0.5806176157679601,0.9045394112060778,0.3321714997291565,0.05385248496359608,0.27862702278962986,0.669830765900112,0.03923433375789878
207,6.867040464525495,152.6737518310547,0.9844603585948876,118.02996826171875,0.9718396923949456,104.74079132080078,0.9601534883564183,131.0084991455078,1.0,72610.0,-0.008587820292086656,-0.0028809646321263627,-0.0033612238463877624,0.00022349849075290688,-0.003269017151601113,103.0,0.867039144039154,0.9525180186383877,0.9077537529265941,0.9209441548393643,0.3333103358745575,0.055198305493195335,0.26610659688748106,0.6816529802360511,0.047147993154944626
208,6.9003756124115405,151.91929626464844,0.9795955302367682,117.0889663696289,0.9640916348226192,103.8153076171875,0.9516696264795333,130.4240264892578,1.0,72786.0,-0.004481584980807418,-0.001721707037402317,-0.0020897629589754383,0.0012280712064145119,-0.002020322375403569,103.0,0.850626528263092,0.9517031663598311,0.9080455032561207,0.9234223947628835,0.33568426966667175,0.05388089619649337,0.2580303904597038,0.6759824000382411,0.05280582643264574
209,6.933710760297587,151.00645446777344,0.973709406709219,115.96879577636719,0.9548683311073168,102.54351043701172,0.9400111266378854,130.12135314941406,1.0,72568.0,-0.0029058199968187703,-0.0007881757855434567,-0.0012312636265751455,0.001958595042937791,-0.0011019928197867088,103.0,0.8321025371551514,0.953404622790578,0.9114347921949069,0.920761803255808,0.3359243869781494,0.057021049826805226,0.24585216624407452,0.6687536241234295,0.06271985483160104
210,6.967045908183633,149.74693298339844,0.9655878471268103,114.86785125732422,0.9458033317813986,101.412841796875,0.9296463449199638,129.6473388671875,1.0,72984.0,-0.0012792605719300632,-0.00024001457995498322,-0.000944733307256643,0.0022976874432075467,-0.0007007991461515024,103.0,0.8117914795875549,0.9497789469838138,0.9037597281595966,0.9249486731047069,0.33902686834335327,0.051453628367931464,0.2345445577112792,0.6615799902970383,0.07387007836826148
211,7.0003810560696795,155.18414306640625,1.0006476902490047,121.04862213134766,0.9966948007315158,108.51885223388672,0.994786779924859,130.95736694335938,1.0,70975.0,-0.005821626398315127,-7.314004389990256e-05,-0.001126464742856749,0.0022047829866621866,-0.0007828110529321865,103.0,0.9632465243339539,0.8180439121756486,0.5322155688622755,0.8993854146866882,0.33220458030700684,0.04291959703478426,0.2705600563578725,0.6816652892646273,-0.011207505730269301
212,7.033716203955725,154.8564910888672,0.9985349473614168,120.61074829101562,0.9930894182632898,108.00621795654297,0.9900874876678898,129.9424591064453,1.0,71453.0,-0.005317478162860989,-0.0001791374536612565,-0.0015212046774805545,0.0017208947687166439,-0.0011555069993793114,103.0,0.949478030204773,0.8110879412574232,0.5242607028396289,0.9049723896853944,0.3374258279800415,0.04299863214955165,0.25525870152407876,0.6737590549635655,0.0016529063308152632
213,7.067051351841771,154.3243408203125,0.9951035726953417,119.83949279785156,0.9867390251193007,107.06790161132812,0.9814859896203859,129.12742614746094,1.0,71513.0,-0.004836186860131819,-0.00044397782309840017,-0.0018889086974574107,0.000952987635818066,-0.001593273596144138,103.0,0.9283402562141418,0.813274043414018,0.5189965460825304,0.9011668934926156,0.34154176712036133,0.04875497756943394,0.23640456979849817,0.6642199902849292,0.02155258905113624
214,7.100386499727818,153.23341369628906,0.9880691316415485,118.92292785644531,0.9791921774514178,106.23383331298828,0.9738401280980521,128.96981811523438,1.0,71655.0,-0.0017041802670767492,-0.0008103494776063812,-0.002121812411535927,5.188360275005325e-05,-0.0019407793661246023,103.0,0.9096890091896057,0.8091689344777057,0.5070965040820599,0.901865277148467,0.3447888195514679,0.04670744600513518,0.2222454818226223,0.6562319441966454,0.035556462857216295
215,7.133721647613863,152.69615173339844,0.9846047961005449,118.05306243896484,0.972029846119813,105.15901947021484,0.9639873644568848,128.3155059814453,1.0,71581.0,-0.001096705421215538,-0.0012612529225469642,-0.0022482804231761036,-0.0008201580253681778,-0.002148533141309928,103.0,0.8913607001304626,0.809525805264898,0.5044914153197078,0.9049888742793567,0.34527871012687683,0.042960453120258923,0.21015353236193962,0.6499023700587417,0.04385854578838693
216,7.167056795499909,152.57916259765625,0.9838504348227012,117.63922882080078,0.9686224069575194,104.51211547851562,0.9580572285811751,127.31123352050781,1.0,71350.0,-0.0025356829420001836,-0.0017471336160569057,-0.0023381536112423076,-0.0015188275384108484,-0.002230162394302233,103.0,0.8770748376846313,0.8091380518570427,0.5004484933426769,0.8994755685542837,0.3438403606414795,0.04361857697544249,0.2004625087596356,0.6442098492284227,0.04851491317411115
217,7.200391943385956,152.4823760986328,0.9832263427938291,117.17691040039062,0.9648157517656478,103.96288299560547,0.9530224424416501,126.50688171386719,1.0,70464.0,-0.0006547551715490041,-0.0021253484691324707,-0.0023878142303991297,-0.001941891689278756,-0.002187726307846727,103.0,0.86548912525177,0.810333409022101,0.4998722752043597,0.8916559107129299,0.34315645694732666,0.05093260445929188,0.1900403042688465,0.6382978072576453,0.05424165786163875
218,7.2337270912720015,152.25563049316406,0.9817642574163989,116.78317260742188,0.961573778381782,103.47987365722656,0.9485947204881964,125.6184310913086,1.0,70012.0,-0.00020927597734982095,-0.0021755026521268306,-0.0022724223221652724,-0.0020440273729772354,-0.001963396727161499,103.0,0.8563573360443115,0.8102991868060713,0.49577215334514085,0.8852529492837002,0.34283363819122314,0.05057721243693654,0.18248300291378622,0.6345534179651395,0.056539281819058665
219,7.267062239158048,151.9656982421875,0.9798947362685827,116.48834228515625,0.9591461931344152,102.98880767822266,0.9440931437213219,124.96236419677734,1.0,69943.0,-0.0030474176355085314,-0.0017012895742517724,-0.0018042456523618086,-0.0018385387070439744,-0.001454220173451873,103.0,0.8456803560256958,0.8112701294863913,0.4930014440329983,0.8844364077792671,0.34183523058891296,0.050036670797400165,0.17464220865561958,0.6305966893072421,0.06281568562503763
220,7.300397387044094,151.61434936523438,0.977629192668266,115.9490737915039,0.9547059434697936,102.15056610107422,0.9364090259651424,124.37762451171875,1.0,69623.0,-0.006033353393537888,-0.0006632906189096487,-0.0008624941157236868,-0.00138954510563961,-0.0005868836763592267,103.0,0.8342254757881165,0.8111495722199082,0.4909584476394295,0.883462128998693,0.33862394094467163,0.04762267311279455,0.1654769257285667,0.626262040838677,0.06596507391370902
221,7.33373253493014,154.844482421875,0.9984575139030024,120.92792510986328,0.9957010009537148,109.12418365478516,1.0003358221657874,128.14483642578125,1.0,71373.0,0.007051102670478482,0.0007477064712792075,0.0004907234177632019,-0.000792195893545518,0.0006020172568617245,103.0,0.9568731188774109,0.7985045698887068,0.47356843624339734,0.9038332467992959,0.3474105894565582,0.052350982055795456,0.2771075897047903,0.6759645545091248,-0.014681334588931581
222,7.367067682816186,154.28805541992188,0.9948695996786843,120.51921081542969,0.9923357134760549,108.67671203613281,0.9962338726753197,127.83763122558594,1.0,72045.0,0.0066009588850480805,0.002160384849702236,0.0019889121911678955,-0.00015644559219112482,0.0019256357173829237,103.0,0.9440634846687317,0.7993383764776644,0.4694704698452356,0.9147177572941266,0.3503393530845642,0.047751453746730656,0.2669720313692831,0.6716377201370956,-0.005544333576862242
223,7.400402830702232,153.66941833496094,0.9908805466869515,119.87847137451172,0.9870599684230166,108.05672454833984,0.9905504790171744,127.74590301513672,1.0,71717.0,0.008961153979429481,0.003181316313670422,0.0032576757093213224,0.00042051296476116,0.0030973958844695867,103.0,0.92642742395401,0.7995919145158518,0.4677412607889343,0.9110391260162601,0.35251662135124207,0.056465955284552845,0.2519765188170169,0.6628859898095478,0.0071594561439721795
224,7.433737978588279,153.00804138183594,0.986615901424547,119.20838165283203,0.9815425578993587,107.20825958251953,0.9827726439788135,127.43384552001953,1.0,72206.0,0.007552764630509801,0.003574557090908961,0.003980751910731799,0.000864044749428638,0.0038369964670351775,103.0,0.9091234803199768,0.8130533935314701,0.5070354264188571,0.9164244647231283,0.35320502519607544,0.050970288484725415,0.23550674459186216,0.6588376515471046,0.018926195009461903
225,7.467073126474324,152.49156188964844,0.9832855739780292,118.577392578125,0.976347095786651,106.46050262451172,0.9759179941082105,127.23725891113281,1.0,71213.0,0.007836967501165304,0.0033611778062724385,0.00404591492265246,0.0011353542769222229,0.003999180800734693,103.0,0.8958990573883057,0.8510571571669967,0.6169519610183534,0.9079006081313665,0.3528129458427429,0.059882453433966115,0.22236108575681407,0.659077220382404,0.02679729979711588
226,7.50040827436037,152.09033203125,0.9806983912728121,118.07035827636719,0.9721722572510567,105.877685546875,0.9705753397028922,126.93037414550781,1.0,71675.0,0.008492077512152085,0.0027891263136410236,0.0035933340137634163,0.0012302899703189834,0.0036442443870282845,103.0,0.8817956447601318,0.8132821764911057,0.5036623648412976,0.9124877465021833,0.3542700409889221,0.053100612356618164,0.21226369026857342,0.6470619865649099,0.03091670909357724
227,7.533743422246417,151.91351318359375,0.9795582401722966,118.00286865234375,0.9716165585889563,105.64326477050781,0.9684264164101247,126.34314727783203,1.0,71839.0,0.004873821252028787,0.002199199713655228,0.0029434699351845737,0.0011729792721204674,0.0030180699747771305,103.0,0.8796140551567078,0.7986701745105954,0.453319227717535,0.9145756152210722,0.35813379287719727,0.05464105208213981,0.2110135163351383,0.6430976836251814,0.04984003818040263
228,7.5670785701324625,151.5248565673828,0.9770521313803369,117.2164077758789,0.965140966775109,104.88057708740234,0.9614348973445745,126.83284759521484,1.0,70822.0,0.009968481048428623,0.00186385796172906,0.002444425510719642,0.0010072136619179491,0.0024466043515821508,103.0,0.8607650995254517,0.7965227377556879,0.45265595436446304,0.9073461962231276,0.35116538405418396,0.053014579649985905,0.19461466775860609,0.634936423240224,0.04117016111412941
229,7.600413718018509,151.52236938476562,0.977036093700894,117.12580108642578,0.9643949259305347,104.78229522705078,0.9605339525467671,126.20795440673828,1.0,70212.0,0.010621357141674392,0.0018782901042438914,0.0023156862898488506,0.0007809427251307476,0.002187381356495164,103.0,0.8615097999572754,0.7981684042613798,0.44422605822366545,0.8995310938580983,0.3525254726409912,0.06248238399057063,0.194596365293682,0.6339332224618399,0.05692388502605645
230,7.633748865904555,151.2842559814453,0.9755007072732494,116.58959197998047,0.95997986676597,103.97130584716797,0.9530996542920445,126.019775390625,1.0,70093.0,0.008748363520007463,0.002144586471552756,0.002560340698542916,0.000538194744920892,0.0023153730871312787,103.0,0.8484643697738647,0.7925375334674408,0.44369623214871673,0.9017728489090161,0.3485969007015228,0.05196325648414986,0.17906210320574095,0.6281218987406385,0.052402683237314215
231,7.667084013790601,154.49917602539062,0.9962309330085715,121.28643798828125,0.9986529380813158,110.00274658203125,1.0083895636804214,128.79434204101562,1.0,70161.0,0.011738456323125313,0.002438870974907648,0.002979128818358652,0.0003105804383316439,0.00268999031840687,103.0,0.9481090903282166,0.8582355819709906,0.6486509599350067,0.9026476945244957,0.3520130217075348,0.05605444627418691,0.37059049899516827,0.703823777371416,-0.007420661969601566
232,7.700419161676647,154.37835693359375,0.9954518756721992,120.93598175048828,0.995767338031171,109.46778869628906,1.0034856320445993,128.41627502441406,1.0,70564.0,0.010634232127703924,0.0025176383109822955,0.0032707589103438393,0.00011309504666270057,0.00302084690072625,103.0,0.940272331237793,0.8630841033199176,0.6580267558528428,0.9114558441726192,0.35212814807891846,0.05775068135728956,0.34035768947338585,0.6965163323509426,-0.005000697308130743
233,7.733754309562693,153.7495574951172,0.991397294493295,120.44894409179688,0.9917571486243767,108.90263366699219,0.9983048847349901,128.59539794921875,1.0,70837.0,0.009697446393494569,0.0022148557025458548,0.0031679689596591566,-5.253781857438192e-05,0.0030026388293325685,103.0,0.930136501789093,0.8469067483565557,0.6148481725651849,0.9135542945576477,0.3528294265270233,0.05856332215630642,0.3267219108657905,0.6878897257467335,0.007786968526847526
234,7.767089457448739,153.32427978515625,0.9886550480899063,119.87152862548828,0.9870028029490723,108.25389099121094,0.9923578937361418,128.57986450195312,1.0,71078.0,0.01091634678857517,0.0014979603810451468,0.0025505288772306135,-0.0001944870037092041,0.002455198360729503,103.0,0.91881263256073,0.8050217132352251,0.48556515377472637,0.9170644853301679,0.35357075929641724,0.052950739297602765,0.31547032837164807,0.6753294481739407,0.016272106163010565
235,7.800424605334785,153.11094665527344,0.987279448112662,119.7768783569336,0.9862234679273656,107.95286560058594,0.9895984093437888,127.92024230957031,1.0,71134.0,0.006572022461849958,0.000473967909716935,0.0014931012318372201,-0.0003252980986519732,0.001408455123024612,103.0,0.9160459041595459,0.7818624005398261,0.40838417634323954,0.9177870100379325,0.3585289716720581,0.055569891363249295,0.3175415413163888,0.6700010817930095,0.031685594565603985
236,7.833759753220831,152.38075256347656,0.9825710609221141,118.6681900024414,0.9770947071112788,106.7280502319336,0.9783705893705541,128.4409637451172,1.0,70331.0,0.009818152632907917,-0.0006458734646596775,0.0002358208626081768,-0.000452917704545484,9.941035587896857e-05,103.0,0.9005826115608215,0.7794808358571137,0.41156815628954513,0.9110941264865144,0.356454461812973,0.055379951809726144,0.2953605095903656,0.661253129690145,0.03115857812144506
237,7.867094901106878,152.23960876464844,0.9816609472113988,118.57156372070312,0.9762991019162187,106.5932846069336,0.9771351997642452,127.79324340820312,1.0,69947.0,0.009112483530323845,-0.0016083702189423174,-0.0009054667604727997,-0.0005795340265927187,-0.001122377459697891,103.0,0.8990042209625244,0.7783702898861519,0.40124665818405364,0.9061196466046584,0.3587552309036255,0.06317848537451097,0.29655310449340216,0.6596271764566202,0.044292864254107764
238,7.900430048992924,152.21490478515625,0.9815016527143559,118.2169189453125,0.9733790141241009,105.92576599121094,0.9710160906822264,127.73509979248047,1.0,69168.0,0.0061927643266146415,-0.002193830607092084,-0.0016536964309214193,-0.0006963372760750547,-0.0019301566336718382,103.0,0.8888095617294312,0.7742115814634899,0.40180430256766136,0.9000390370852309,0.3550437390804291,0.05690305790500976,0.2835993523016424,0.6546600879205826,0.03870688202356791
239,7.933765196878969,152.40652465820312,0.9827372427661571,118.34231567382812,0.9744115105304181,105.91571807861328,0.9709239819802614,126.79256439208984,1.0,69152.0,0.003678757148308509,-0.0022886120171282673,-0.0018688022451901333,-0.000786084468630691,-0.0021492943164638997,103.0,0.8886743783950806,0.7756536325775104,0.3950572651550208,0.8998308392973324,0.35574015974998474,0.055562784645413144,0.2857907218880148,0.655567419948609,0.051111661122960284
240,7.967100344765016,152.09523010253906,0.9807299746783408,117.78284454345703,0.9698049156185389,105.25385284423828,0.9648566971565236,126.96780395507812,1.0,68057.0,0.004836452706371452,-0.0019308753477619328,-0.0015954690250791338,-0.0008256724196800857,-0.0018219605698936408,103.0,0.8773247003555298,0.7752668106636104,0.39804869447668867,0.8881247553177607,0.35200196504592896,0.05895863238940363,0.2732562410920258,0.6496024042577051,0.04497753627710603
241,8.000435492651063,154.26483154296875,0.9947198490767699,121.22177124023438,0.998120482524006,109.88177490234375,1.0072806224667874,129.11248779296875,1.0,69054.0,0.009930796787835539,-0.001304459260513166,-0.0010432797517713384,-0.0007908289231792927,-0.0011849233249371714,103.0,0.9540676474571228,0.7727092806595804,0.3934022648941408,0.8972946282387796,0.35668474435806274,0.06430780425686738,0.3468589799287514,0.6821413153008483,-0.003244933991481888
242,8.033770640537108,154.19053649902344,0.9942407848975836,121.19981384277344,0.9979396888602569,109.67819213867188,1.0054143896625105,128.76339721679688,1.0,69420.0,0.006247760272594549,-0.0006739662824218308,-0.0005058546244549013,-0.0006637893306187294,-0.0005725183314475572,103.0,0.9513267278671265,0.767094017094017,0.38431287813310283,0.9020504690870345,0.36037805676460266,0.06099430858390291,0.3478392394122731,0.6810592438946153,-0.0007640466147812754
243,8.067105788423154,153.8883514404297,0.9922922560406101,120.7587661743164,0.9943081736039421,109.08850860595703,1.0000087908139361,128.42221069335938,1.0,69073.0,0.005534185363288591,-0.0002840353478252118,-0.00024843517826263125,-0.0004365872102105497,-0.0002797170652072144,103.0,0.9434667229652405,0.7693503008893972,0.3897036468663588,0.8999856675657012,0.36139482259750366,0.06651552463224276,0.32969467085547177,0.675033191149125,0.003009492980374756
244,8.1004409363092,153.7634735107422,0.9914870267856378,120.67794036865234,0.9936426669765068,109.04658508300781,0.9996244800187217,128.1532440185547,1.0,69508.0,0.006245520476744537,-0.00026476861952166755,-0.00040595655646161454,-0.00011831624436474549,-0.00044749297620232575,103.0,0.9410555958747864,0.7664873108131438,0.38260344133049434,0.9056534938565974,0.36319687962532043,0.06324512371496697,0.33094032341600965,0.6746302060201326,0.008174242331382833
245,8.133776084195246,153.71072387695312,0.991146890234509,120.54769897460938,0.9925702803768329,108.93869018554688,0.9986354130003555,128.1795196533203,1.0,68883.0,0.007515874570811487,-0.0005819767192330629,-0.0009305630783773371,0.0002646628321114707,-0.0010075903115337793,103.0,0.9400955438613892,0.7649589400384227,0.3776258293047631,0.8975100652777235,0.36477407813072205,0.0735123584672113,0.33057503302701685,0.6723687032236814,0.01102089073290918
246,8.167111232081293,153.87744140625,0.9922219067105387,120.43529510498047,0.9916447650717544,108.5633773803711,0.9951949396702405,128.03155517578125,1.0,69252.0,0.004546744432450456,-0.0010524943768897242,-0.0016100428719965712,0.000668265265853268,-0.0017151550518495593,103.0,0.9337640404701233,0.761965960068542,0.37835730376018023,0.9028473091364205,0.3647949695587158,0.06393408427200667,0.31760815572113443,0.669126379791945,0.011249458807679594
247,8.200446379967339,153.8848419189453,0.9922696261861815,120.4794921875,0.9920086767097317,108.4892349243164,0.9945152795596138,128.21678161621094,1.0,69186.0,0.0019675764404502027,-0.001420816168521588,-0.002152692301430473,0.0010359348530243084,-0.0022513283120216276,103.0,0.9345802068710327,0.760134516617042,0.37748966553927094,0.9019868585732165,0.36568546295166016,0.06433823529411764,0.31825802908102796,0.6690294432103133,0.009506480219433653
248,8.233781527853385,153.9132843017578,0.9924530263977246,120.53125762939453,0.9924349049962286,108.62495422363281,0.9957594114497083,128.57589721679688,1.0,68945.0,0.0032794880631852874,-0.0014686071735123655,-0.002308058658684062,0.0013061823480858942,-0.002358628602821767,103.0,0.9359868764877319,0.7618633210046656,0.3812459206613968,0.8988449103045474,0.3648410737514496,0.06570713391739674,0.31861628834578287,0.6695794995652392,0.007110183385706875
249,8.26711667573943,153.98992919921875,0.9929472427403109,120.66194152832031,0.9935109351096264,108.80455780029297,0.9974058282704803,129.0867919921875,1.0,68315.0,0.0035181736676788145,-0.0011121671206638466,-0.0019766883184483123,0.0014227563481293266,-0.001953794962812418,103.0,0.9367919564247131,0.7653468003610725,0.38468857498353215,0.8906315185648728,0.36317476630210876,0.07335992907801418,0.3174412647295616,0.6690180134718229,0.0033453542329920094
250,8.300451823625476,154.595703125,0.9968533523960292,121.12296295166016,0.9973069110371349,109.20082092285156,1.001038352090797,128.9526824951172,1.0,68037.0,0.0018602121150094741,-0.00044608121308678793,-0.0012633823254968397,0.0013462290618943928,-0.0011718256163276328,103.0,0.9459561705589294,0.7650249129150315,0.39109602128253745,0.8870071964956195,0.36227408051490784,0.06770181476846057,0.32022281993621116,0.6727062988470273,-0.001802925926091846
251,8.333786971511524,153.93592834472656,0.9925990381541248,120.8306884765625,0.9949003702224838,109.13185119628906,1.0004061101274235,130.29197692871094,1.0,66997.0,0.0047185872322884626,0.00028558521106356505,-0.000448663166954014,0.0010645432528293944,-0.00031987189364569965,103.0,0.9567853808403015,0.7650243045708515,0.39251011239309225,0.8734485815602837,0.36101239919662476,0.07575876095118898,0.4060032538770393,0.6912804551474633,-0.008224632360415169
252,8.36712211939757,153.87628173828125,0.9922144290195101,120.82693481445312,0.9948694631750326,109.0369873046875,0.9995364976747035,130.25637817382812,1.0,67497.0,0.002676693400426089,0.0007791020798526779,0.00011507305019890998,0.0005976730098855178,0.00024046129715663632,103.0,0.9570896625518799,0.7638067864744605,0.3928767204468347,0.8799671464330413,0.36042970418930054,0.06937056737588652,0.4028771649110331,0.6915099151349269,-0.008434124376095005
253,8.400457267283615,154.26307678222656,0.9947085341495556,121.16800689697266,0.9976777956065493,109.37049865722656,1.0025937792219288,130.3977813720703,1.0,66374.0,0.0018472960703847519,0.0007879830259673157,0.00014530074540863874,8.257248985939162e-07,0.0002421218229056846,103.0,0.9642317295074463,0.7662839867016201,0.3981830234730467,0.8763169707691901,0.3597647249698639,0.07949354387262021,0.3868532859252117,0.6889664198826088,-0.007245047970058477
254,8.43379241516966,154.20655822753906,0.9943440951025837,121.22645568847656,0.9981590535141179,109.39848327636719,1.002850312797333,130.1573944091797,1.0,66831.0,0.0004212224188938629,0.00022534909366566083,-0.0004461600601058962,-0.0006436771743211987,-0.00037329017723710967,103.0,0.9629519581794739,0.7641114652381878,0.3980936990318864,0.8823506112856804,0.35995614528656006,0.07175675318845555,0.38809833759782136,0.6896988696019175,-0.00724298895830002
255,8.467127563055707,154.5125274658203,0.9963170248460715,121.52800750732422,1.000641982478567,109.7404556274414,1.005985155886304,130.12017822265625,1.0,67137.0,0.0003644085174279721,-0.0007840560931301395,-0.0014979552347912791,-0.0012370441066013346,-0.0014172438250878235,103.0,0.9629427194595337,0.7673563012943682,0.4034437046635983,0.883242119665316,0.3602007329463959,0.07427774561911277,0.37180690230424357,0.6866838812855477,-0.008297449189200426
256,8.500462710941754,154.55039978027344,0.9965612304925575,121.63423919677734,1.001516677049117,109.81806945800781,1.00669663790991,129.88735961914062,1.0,67210.0,-0.0008820970422911412,-0.0019240896931362224,-0.0026411332149157197,-0.0016815993185972803,-0.0025157599072562447,103.0,0.9605278372764587,0.7642463919059663,0.40194911471507216,0.8842024943429985,0.36085283756256104,0.07509340630426775,0.3706293706293706,0.6850921668174992,-0.007268757398725527
257,8.5337978588278,154.71531677246094,0.9976246368693586,121.70804595947266,1.0021243900105867,109.92378234863281,1.007665702582975,129.6306915283203,1.0,66787.0,7.032461615191776e-05,-0.0027824732712405944,-0.0034285027328859997,-0.0018973189756885745,-0.0032422422699644213,103.0,0.9586166739463806,0.7629528700695246,0.40176980550107055,0.8786375835394411,0.362541139125824,0.08427616692101247,0.36857472262566066,0.6824755003182703,-0.004716875256803293
258,8.567133006713846,155.13409423828125,1.0003249688467186,122.24393463134766,1.0065368107686616,110.20005798339844,1.0101983072265244,129.60728454589844,1.0,68357.0,-0.007068252034486577,-0.0029980210579768486,-0.0035042777254639837,-0.0018400150484865754,-0.003276670690625413,103.0,0.9521659016609192,0.7665150118739364,0.4031920651871791,0.889543887045351,0.3627459704875946,0.07351161428850284,0.3466945594452653,0.6789215313929098,-0.005303535398200254
259,8.600468154599891,155.1337127685547,1.000322509079933,122.26953125,1.00674756919183,110.2279281616211,1.0104537917278742,129.5654754638672,1.0,68284.0,-0.007244865076148466,-0.002407155483091954,-0.0027453661627211173,-0.0015083000696031823,-0.002520712323453662,103.0,0.9516192674636841,0.7650401265303731,0.4025833284517603,0.8885939228316742,0.3629074692726135,0.07602316351096362,0.3457764630074395,0.6779044286117294,-0.005096529708655461
260,8.633803302485937,155.132568359375,1.0003151297795758,122.25383758544922,1.006618350093035,110.42381286621094,1.0122494568174338,129.5207977294922,1.0,68487.0,-0.00309557501979435,-0.0011215018633064001,-0.0013126633535437864,-0.0009485588992169169,-0.0011334027995969203,103.0,0.9504819512367249,0.7637167150943488,0.4006015740213471,0.8912356041382002,0.3630550503730774,0.07470882946190384,0.3453356111378802,0.6774775403417224,-0.004063908576966018
261,8.667138450371983,154.36036682128906,0.9953358730705848,120.9984359741211,0.9962815760198612,109.09639739990234,1.0000811069854105,130.9637908935547,1.0,66788.0,0.0020343122529716817,0.0005098000565454943,0.00041212344506278174,-0.00024553070371244193,0.0005338356924355217,103.0,0.9655472636222839,0.7739663811862411,0.4076780259926933,0.866735014340034,0.3582361042499542,0.0805896933438883,0.32886147212074024,0.6790580356319451,-0.006022109426898778
262,8.70047359825803,154.30885314941406,0.9950037061638416,121.01750183105469,0.9964385612060006,109.07471466064453,0.9998823424212614,130.9169464111328,1.0,67414.0,0.0007928709317207017,0.0020405163208209952,0.0019762233938299444,0.0004912242369492575,0.0020652917931203137,103.0,0.9665505290031433,0.7717585862481582,0.40582074939923457,0.8748588707061007,0.35776305198669434,0.06922148539392917,0.32991663452695286,0.6808972387427794,-0.0061473783886310945
