frame_index,time_s,R_skin_raw,R_normalized,G_skin_raw,G_normalized,B_skin_raw,B_normalized,frame_luminance,face_detected,skin_pixel_count,BVP_detrended,BVP_butterworth,BVP_cheby1,BVP_cheby2,BVP_elliptic,gt_bpm,bisenet_conf,vote_mean,highconf_pct,roi_coverage,green_cv,hair_rej_frac,clust_agree,quality_score
1,0.0,154.80557250976562,1.0047587870986785,120.80850219726562,0.9976624907339463,108.38589477539062,0.9958637297461201,128.13717651367188,1.0,67595.0,-0.0017725538127977836,-0.00041734720012810895,-0.0006771696444579668,0.00030434221336667614,-0.0007562114129582315,,0.9693270325660706,0.7664176344404172,0.3702936607737259,0.8825334238562774,0.3573800027370453,0.0658032170461667,0.387306753458096,0.6925481209938337
2,0.03333514788604609,154.70794677734375,1.0041251515589007,120.7979736328125,0.9975755435932641,108.49407958984375,0.9968577459236536,128.0900421142578,1.0,67876.0,-5.923339169988662e-06,0.0006048325552112737,0.0001206821261960826,0.0010256072008976156,-2.11116404566486e-06,,0.9694792628288269,0.7653760779460584,0.36920266368082977,0.8862022143304784,0.358217716217041,0.061024650094004596,0.38783958984029704,0.6932490052494371
3,0.06667029577209219,154.7287139892578,1.0042599402381187,120.78273010253906,0.997449659254798,108.48855590820312,0.9968069936167048,128.1565704345703,1.0,67837.0,0.0004460024449809974,0.001462533234277761,0.0008160544255994488,0.0016325425303527353,0.0006713113733829919,,0.9693576097488403,0.7653689481158267,0.3686041540752097,0.8856930227700021,0.3583848178386688,0.061886358888656776,0.38812152660052773,0.693135679958296
4,0.10000544365813828,154.7018280029297,1.0040854379215998,120.81028747558594,0.9976772339447577,108.4878921508789,0.9968008949278864,128.19964599609375,1.0,67917.0,-0.0004920850310936031,0.0020359977450218766,0.001347531433625115,0.002052591112857091,0.001214814900718378,,0.9692167043685913,0.7654637277853852,0.36958346216705684,0.8867375182786714,0.3582001030445099,0.06101159390014623,0.3881207944991681,0.6932592255250352
5,0.13334059154418437,154.766845703125,1.0045074324566097,120.80255889892578,0.997613409703083,108.43060302734375,0.996274514992971,128.17388916015625,1.0,67949.0,-0.0009665944454984587,0.0022808410302494193,0.0016753401257553525,0.002240712640225131,0.0015756510194387453,,0.9688012599945068,0.7648138064332564,0.3676875303536476,0.881344280581605,0.3585679829120636,0.06552784155025487,0.3857893420065049,0.6918364900385383
6,0.16667573943023045,154.85462951660156,1.0050771894525992,120.81130981445312,0.9976856766381282,108.33406829833984,0.9953875413191818,127.8255615234375,1.0,67990.0,-0.0025095241605704866,0.002215070937354775,0.0017724544875739573,0.002183522793245904,0.001698968182675476,,0.9688474535942078,0.7679952934255038,0.3731872334166789,0.8818760781872187,0.3575678765773773,0.06506089731117942,0.383924106486248,0.6921859998111136
7,0.20001088731627656,154.88400268554688,1.0052678347189437,120.76810455322266,0.997328878335459,108.34788513183594,0.9955144921864254,127.92871856689453,1.0,67669.0,-0.0008575829846855232,0.0018879987214014096,0.0016213485420533366,0.001899338304030439,0.0015475496748246665,,0.968629002571106,0.7672149236233233,0.37356839911924217,0.8777124920554626,0.35728394985198975,0.06910774738316666,0.3846665385922653,0.6914763035045876
8,0.23334603520232264,154.84815979003906,1.0050351979757524,120.87763977050781,0.9982334436244265,108.27420806884766,0.994837537727579,127.83138275146484,1.0,67822.0,-0.005525608851545072,0.0013584653086324695,0.0012259270800420486,0.0014298325432845272,0.001127003536870657,,0.968298077583313,0.7663147651204624,0.37260770841319923,0.8796970050715333,0.35726574063301086,0.06759017860617145,0.38360708914511515,0.6912444616719564
9,0.26668118308836875,154.8295440673828,1.004914373443316,120.79642486572266,0.9975627535428594,108.3740234375,0.9957546543461031,127.9734878540039,1.0,67521.0,-0.0014680016551615882,0.0006970544128195434,0.0006350718502993303,0.0008348432278576448,0.0005110358549611414,,0.9679862260818481,0.7655593568420689,0.3723286088772382,0.8757928324059302,0.3573734760284424,0.07324539216830746,0.38358436634528514,0.6901060384110036
10,0.3000163309744148,154.80413818359375,1.0047494776674908,120.83680725097656,0.9978962399309979,108.35905456542969,0.9956171183982666,127.91185760498047,1.0,67812.0,-0.0030270075724708745,2.3809799000954997e-06,-4.033762520242251e-05,0.0001783399171771057,-0.00016297981649286838,,0.9679322242736816,0.7645156216205589,0.3706423641833304,0.8795672983384567,0.35678231716156006,0.0685629791042453,0.38434200436500915,0.6907845046088548
11,0.3333514788604609,154.84661865234375,1.0050251952890508,120.89556121826172,0.9983814427791095,108.25782775878906,0.9946870333035195,128.3650665283203,1.0,67887.0,-0.006328334435071525,-0.0005957476783284735,-0.000638966203327299,-0.0004760399863109778,-0.0007228082931623511,,0.9586456418037415,0.7640441714417586,0.3719710695714938,0.8805400988365306,0.35773342847824097,0.06927636613616613,0.4295520497296979,0.69729643610344
12,0.366686626746507,154.8109130859375,1.0047934498743774,120.93766784667969,0.9987291683366641,108.25141906738281,0.9946281494114794,128.28836059570312,1.0,67842.0,-0.007834960336784547,-0.000967585290932152,-0.0009978464609688101,-0.0010727088392022833,-0.001020566892638537,,0.9594805240631104,0.7642315969458447,0.37271896465316473,0.8799564185376862,0.35761624574661255,0.0685629791042453,0.4297190530939536,0.697690184367058
13,0.4000217746325531,154.8609619140625,1.005118289600928,120.90740203857422,0.9984792268097898,108.23165893554688,0.9944465907443559,128.33470153808594,1.0,67538.0,-0.007057513244697278,-0.001042028050602026,-0.0010222335455728783,-0.0015656867754265896,-0.0009906737917083019,,0.9603907465934753,0.7635553318132015,0.37164263081524473,0.8760133338521603,0.35800185799598694,0.07346589361453754,0.4285291243448133,0.6967600349016457
14,0.4333569225185992,154.8873291015625,1.005289424676379,120.97555541992188,0.9990420520327714,108.13712310791016,0.9935779832368934,128.14308166503906,1.0,68120.0,-0.010591317152513935,-0.0008560314816653842,-0.0007397195364758886,-0.001919822859463598,-0.0006851693400710413,,0.960080087184906,0.7647093364650616,0.37435408103347034,0.8835622657172134,0.35686275362968445,0.0653073401040248,0.4286699941280094,0.6982467134981967
15,0.4666920704046453,154.86798095703125,1.0051638463918466,120.87781524658203,0.9982348927434378,108.25421905517578,0.9946538760643112,128.42141723632812,1.0,68087.0,-0.005748443750034582,-0.0005537551621487488,-0.00030185779835060204,-0.0021072973101512317,-0.00025690715986676437,,0.9611402750015259,0.7662206686543197,0.37684139409872663,0.8808605878700062,0.35761573910713196,0.06911095011384806,0.4234435354766696,0.6971601575583637
16,0.5000272182906914,154.86744689941406,1.0051603801142768,120.90956115722656,0.9984970572741472,108.22298431396484,0.9943668871904874,128.2509307861328,1.0,68475.0,-0.007225365921572691,-0.0003218242118805344,7.897076904818998e-05,-0.0021109385272183962,0.00010051824799862831,,0.9610695242881775,0.7656030181331386,0.37676524278933915,0.8858802525357069,0.35819125175476074,0.0640654108880149,0.42308871851040525,0.6977552626586708
17,0.5333623661767375,154.83717346191406,1.0049638916943144,120.92195129394531,0.9985993776773848,108.2408676147461,0.9945312012892278,128.2602996826172,1.0,67772.0,-0.007408052626887762,-0.00028910637802472726,0.00023319123029265658,-0.0019210790999270812,0.000244970519467869,,0.9613105058670044,0.7652176906883866,0.37604025261169804,0.8767853446491409,0.35776659846305847,0.07334144069550817,0.42319837100867613,0.6962762082948823
18,0.5666975140627836,154.8016815185547,1.0047335327906692,120.97936248779297,0.9990734916148006,108.21898651123047,0.9943301548578338,128.17971801757812,1.0,67926.0,-0.009634638528682571,-0.00044670434078811813,0.00012696623687181324,-0.0015419131423282978,0.00015624964311494385,,0.9617170691490173,0.765730353620116,0.37754320878603187,0.8787776857793418,0.3578786253929138,0.07072811012212793,0.42248917940111297,0.6967566762719596
19,0.6000326619488296,154.85302734375,1.0050667906198896,120.93148803710938,0.9986781341453941,108.21546173095703,0.9942977687172118,128.23748779296875,1.0,67845.0,-0.00804929885004152,-0.0006370867703906668,-0.00010688267484642646,-0.00099273248401646,-3.922780762849399e-05,,0.9614262580871582,0.765996020340482,0.3773748986660771,0.8777297660939763,0.35803085565567017,0.07224177188987788,0.4227724961308866,0.6965515843136828
20,0.6333678098348757,154.8338165283203,1.004942103663875,121.01152038574219,0.999339058424928,108.1546401977539,0.9937389325418029,128.01235961914062,1.0,68157.0,-0.011549086428142064,-0.0006247374437492091,-0.0002226744530018815,-0.0003141577303169736,-0.00011907790364452234,,0.961496889591217,0.76586899853769,0.37754009125988525,0.8817661974746429,0.3584378957748413,0.06793365762782033,0.42182020922282376,0.6970426787294557
21,0.6667029577209218,154.88783264160156,1.005292692880945,120.9555892944336,0.9988771674913471,108.1565933227539,0.9937568781089009,128.27821350097656,1.0,67467.0,-0.009618633426186463,-0.00021686430174997967,1.960046373232297e-05,0.00043385879276097825,0.00013618391492434267,,0.9607059955596924,0.766038705342365,0.3770287696207035,0.8728394742289382,0.3592432141304016,0.076743945352929,0.3672017430743919,0.6845455573168059
22,0.7000381056069679,154.9002685546875,1.0053734076300727,120.98643493652344,0.9991318974114763,108.11327362060547,0.9933588510386586,128.0562286376953,1.0,67987.0,-0.011221803813670939,0.0006246190752891625,0.0007254046943400307,0.0011713522695767657,0.0008257920253669505,,0.959972620010376,0.7666857879692687,0.37852824804742086,0.8795668598633823,0.35894280672073364,0.06944731939557028,0.3674526012325886,0.6857092617396743
23,0.733373253493014,154.86050415039062,1.005115318505868,120.9130859375,0.9985261656647234,108.2264175415039,0.9943984321326517,128.28787231445312,1.0,67700.0,-0.007258119139612995,0.0017360877519376622,0.0017888869772449986,0.0018099668955250691,0.0018588081010175739,,0.9601550698280334,0.766356474643033,0.37677991137370753,0.8758538604843717,0.3591659367084503,0.0737166218174291,0.36779911373707536,0.6850752256422413
24,0.76670840137906,154.89381408691406,1.005331515189728,120.90252685546875,0.9984389665033435,108.20367431640625,0.9941894644157809,128.19151306152344,1.0,67832.0,-0.007188489711910162,0.0027955142101699307,0.0029080066456084624,0.0022616058468979986,0.0029560126600309705,,0.9594385623931885,0.7662804182883202,0.3764447458426701,0.8775615814531152,0.3592377007007599,0.07228058373007659,0.3675846208279278,0.6850677550247345
25,0.8000435492651062,154.84829711914062,1.0050360893042705,120.95581817626953,0.9988790576465794,108.19589233398438,0.9941179625468751,128.28993225097656,1.0,67398.0,-0.009092643201674189,0.0034384939748630604,0.0036892741702956875,0.0024552252278300895,0.0037404222007067765,,0.9599291086196899,0.7660069042602649,0.37578266417401107,0.8719468019043676,0.35926491022109985,0.07920202856551439,0.3670880441556129,0.6839289422676157
26,0.8333786971511523,154.85464477539062,1.0050772884891013,120.92850494384766,0.9986534991222008,108.21684265136719,0.9943104567939489,128.26361083984375,1.0,67390.0,-0.007887725508517462,0.00339709375705635,0.0037991286474371834,0.0023500455029687194,0.0038763098360762014,,0.9595187306404114,0.7655586882326754,0.3736756195281199,0.8718433036638377,0.359501451253891,0.07909853032498447,0.36944650541623386,0.6842249565378872
27,0.8667138450371984,154.86968994140625,1.0051749384800703,120.93122100830078,0.9986759289642898,108.1990966796875,0.9941474044928952,128.28945922851562,1.0,67109.0,-0.008203933760153048,0.002604089929858312,0.0030984911112386486,0.0019456251444416772,0.003204934207369226,,0.9597944021224976,0.7654561981254377,0.3734670461488027,0.8682079279652246,0.35911017656326294,0.08314789898571724,0.36938413625594185,0.6836130035691855
28,0.9000489929232445,154.95718383789062,1.005742813782522,120.92501068115234,0.9986246427523222,108.11781311035156,0.993400560462187,128.1156768798828,1.0,67393.0,-0.009041151870944786,0.0012214694389844716,0.0017047917755416,0.0012873493621708603,0.0018212554047510536,,0.9602791666984558,0.765994490031111,0.375261525677741,0.8718821155040364,0.35909879207611084,0.0793055268060443,0.3684507293042304,0.6842699512527152
29,0.9333841408092906,155.03524780273438,1.0062494845267393,121.07276153564453,0.9998448009598964,107.89199829101562,0.9913257444662325,127.74565887451172,1.0,67112.0,-0.016979634951469147,-0.00041648634967134595,-4.311443521868885e-05,0.000460297498250471,5.2675461230301286e-05,,0.960878849029541,0.7674385107482019,0.38017046131839316,0.8682467398054233,0.3596748113632202,0.08477799627406334,0.3653892001430445,0.6832207750317844
30,0.9667192886953366,155.03672790527344,1.0062590910674332,121.01141357421875,0.9993381763524862,107.95185852050781,0.9918757480578352,127.7967300415039,1.0,67647.0,-0.014114606738697688,-0.0019194330533541452,-0.0017015522814542788,-0.00041903073130089043,-0.0016461019916584909,,0.9609975218772888,0.7675728413676882,0.380977722589324,0.8751681846408611,0.35921117663383484,0.07537259366590768,0.36641684036246985,0.6849877018288086
31,1.0000544365813828,155.0119171142578,1.0060980577151857,121.05154418945312,0.9996695835698693,107.93653106689453,0.9917349174160394,127.7914047241211,1.0,67462.0,-0.015669807455181206,-0.0029660618166598963,-0.002872879405750171,-0.0012252338461411372,-0.002854553626002545,,0.9603231549263,0.7647613965392863,0.37609320802822327,0.872774787828607,0.3588966429233551,0.07678275719312772,0.39239868370341824,0.6892275636292156
32,1.0333895844674288,155.01402282714844,1.0061117247524614,121.02645111083984,0.9994623595512433,107.95951080322266,0.9919460582289259,127.81491088867188,1.0,67514.0,-0.014513899648380235,-0.0033898408014953647,-0.003333113998733876,-0.0018401764872140194,-0.003326809518621861,103.0,0.960077702999115,0.7645624117466995,0.3738780104867139,0.8734475263920514,0.3598254919052124,0.07579952390809357,0.3932369582605089,0.6894513759259254
33,1.066724732353475,154.97389221191406,1.0058512587522088,121.07923126220703,0.9998982293477939,107.94688415527344,0.9918300429416327,127.99745178222656,1.0,66946.0,-0.01646334113005754,-0.0032035081741037244,-0.003092011720745997,-0.0021768826315116526,-0.003071046223541394,103.0,0.9607385993003845,0.7637150340075086,0.3736145550144893,0.8660991513144276,0.358980655670166,0.08433812875181122,0.3912407014608789,0.6876816963184839
34,1.100059880239521,155.05101013183594,1.0063517892333025,121.04470825195312,0.9996131309336003,107.904296875,0.9914387454590522,127.81682586669922,1.0,67645.0,-0.015837481557377853,-0.0025692400422163662,-0.002368917406671906,-0.002191866320502059,-0.002324457654516641,103.0,0.9615961313247681,0.7642052874072979,0.3751792445857048,0.8751423100807286,0.35814276337623596,0.07294038501345478,0.3918545347032301,0.6899405356511449
35,1.1333950281255671,154.9965362548828,1.0059982289211726,121.08458709716797,0.9999424589802279,107.91886901855469,0.9915726362135718,127.85602569580078,1.0,67407.0,-0.0169964834657515,-0.0017342648058035594,-0.001497561857327431,-0.0018948123055540823,-0.0014472568362227573,103.0,0.9611496925354004,0.7636595605797618,0.37543578560090196,0.8720632374249637,0.3579219877719879,0.07648519975160423,0.3926298455650007,0.689307672402546
36,1.166730176011613,154.96995544433594,1.0058257073346937,121.03522491455078,0.9995348155018119,107.99481964111328,0.992270480434118,127.90483856201172,1.0,68101.0,-0.014329615140282692,-0.0009504555365134954,-0.0007959922553546974,-0.001344754752357845,-0.0007711535635749013,103.0,0.9636846780776978,0.7654023680513746,0.3779827021629638,0.8821830146639722,0.35740670561790466,0.06553448365200269,0.38698403841353285,0.6909129334280856
37,1.2000653238976593,154.94004821777344,1.0056315957907793,121.0176010131836,0.9993892735489307,108.04231262207031,0.9927068521340578,128.0703887939453,1.0,67260.0,-0.013109576843410686,-0.0003950626332975441,-0.00044922440746680343,-0.0006411831362476228,-0.00047268176522725154,103.0,0.9640774726867676,0.7650956487263355,0.3773565269104966,0.8712886678066221,0.3572557270526886,0.07879941965904969,0.3867231638418079,0.6887752235398726
38,1.2334004717837053,154.87127685546875,1.005185238276278,121.01705169677734,0.9993847371763733,108.11167907714844,0.99334420016552,127.96026611328125,1.0,67701.0,-0.012185051627480348,-0.00011487047324626142,-0.0004490567596230742,9.534151849878657e-05,-0.0005173648468076957,103.0,0.9633570313453674,0.7648582246446384,0.38055567864581025,0.8770013990362195,0.3568460941314697,0.07188196279599979,0.38678896914373495,0.6896675825466565
39,1.2667356196697515,154.8883514404297,1.005296060122013,121.01734924316406,0.9993871943781752,108.09428405761719,0.9931843724585542,127.98591613769531,1.0,67594.0,-0.012414830868589688,-1.9116429862614845e-05,-0.0006163315226934026,0.0007437626038365329,-0.0007014662721769352,103.0,0.9632955193519592,0.7644120286810466,0.38130603307985916,0.8756153168557956,0.3566238582134247,0.07339758536711746,0.38661715536881974,0.6892861029892243
40,1.3000707675557976,154.8682098388672,1.0051653319393767,121.02053833007812,0.9994135305410775,108.11124420166016,0.9933402044728459,127.72515869140625,1.0,67922.0,-0.012297068986372117,6.599763330234469e-05,-0.0006988964981275423,0.0012044789353389423,-0.000766252876592313,103.0,0.9625979661941528,0.7638369502272214,0.3831306498630782,0.8798642416705529,0.35620519518852234,0.0680993833877403,0.386575778098407,0.6898361358716254
41,1.3334059154418436,154.92019653320312,1.005502749301681,121.08287048339844,0.9999282828159862,107.99694061279297,0.9922899681983884,128.22193908691406,1.0,66744.0,-0.015889410695385575,0.0002981041750438067,-0.0005043318938541925,0.0014149311448925133,-0.0005364667703073713,103.0,0.9574671387672424,0.7670202565024571,0.3851132686084142,0.8646043836468211,0.3566199839115143,0.0787216954246334,0.3714790842622558,0.6844711815768119
42,1.3667410633278898,154.86375427246094,1.0051364132807936,121.00642395019531,0.9992969709684238,108.12984466552734,0.993511107959505,128.2484893798828,1.0,67768.0,-0.011564404424781294,0.000722065485025556,-6.3633815231158215e-06,0.001361376779970571,-1.3069424355535527e-05,103.0,0.9636715650558472,0.7707423365993783,0.38997757053476567,0.877130764551326,0.35478711128234863,0.06875396383686465,0.360538897414709,0.6861735038528809
43,1.4000762112139358,154.8572540283203,1.0050942237309428,120.97312927246094,0.9990220163873098,108.16961669921875,0.9938765385895109,128.35366821289062,1.0,67546.0,-0.009912380263102538,0.0012302930311353373,0.0006288136203424676,0.0010766202481836864,0.0006169570496574955,103.0,0.9640688300132751,0.7709955684521166,0.3909039765493145,0.8742573872976016,0.35485410690307617,0.07178265877997955,0.35976963846859916,0.6856850234826652
44,1.433411359099982,154.85641479492188,1.005088776723333,120.99214172363281,0.9991790252819331,108.15143585205078,0.993709490595783,128.31942749023438,1.0,67574.0,-0.01078762605387279,0.0016072188202007828,0.0011145362036275096,0.0006340668756901026,0.0010675205432308641,103.0,0.9635863900184631,0.7683033908505243,0.38465978038890697,0.8746197952395128,0.35511231422424316,0.07099312719224447,0.359798147216385,0.6851580047672385
45,1.466746506986028,154.8377685546875,1.0049677541178923,120.97119140625,0.9990060130730103,108.1910400390625,0.9940733790286163,128.37686157226562,1.0,67332.0,-0.009556683198308713,0.0016386968956717787,0.0011839564877974321,0.0001312659045276563,0.0010918399867852811,103.0,0.9643287062644958,0.7684706627854018,0.3847501930731302,0.8714875551701375,0.3557223379611969,0.07475958115996428,0.3586110616051803,0.6845369884586462
46,1.5000816548720741,154.803466796875,1.0047451200614028,120.97615814208984,0.9990470294415496,108.22035217285156,0.994342702734828,128.47299194335938,1.0,67700.0,-0.009339273741797549,0.0012307954334550755,0.0007321460402758857,-0.00033003516360755085,0.000611389657969277,103.0,0.9636893272399902,0.7691580502215657,0.38580502215657314,0.8762506309781132,0.3556274473667145,0.06929757574973143,0.36016248153618907,0.6856988260415915
47,1.53341680275812,154.82989501953125,1.0049166512828618,120.97164916992188,0.9990097933834747,108.19847869873047,0.9941417264033056,128.37734985351562,1.0,67544.0,-0.00946353497724517,0.0004766882855230894,-0.00011118549277980335,-0.0006628107329497366,-0.00022729782556980583,103.0,0.9641127586364746,0.7687926882229855,0.3853488096648111,0.8742315010160365,0.35490110516548157,0.07153673910511124,0.3594989932488452,0.685240647696667
48,1.5667519506441663,154.8610382080078,1.005118784783438,121.01862335205078,0.9993977162423013,108.1203842163086,0.9934241841188745,128.3119354248047,1.0,67594.0,-0.012064863618256871,-0.0003643005752474472,-0.0010187638325441892,-0.0008121539673627996,-0.001100591307060366,103.0,0.9634937644004822,0.7688650866447713,0.38450158298073794,0.8748786580551636,0.3543028235435486,0.07142025083806837,0.359647305973903,0.6851486794897644
49,1.6000870985302125,154.9253692626953,1.005536322675858,120.98974609375,0.9991592416571692,108.08489990234375,0.9930981496166383,128.21710205078125,1.0,67411.0,-0.01153879434152838,-0.0009688264286922155,-0.0016007601688838898,-0.0007635946489990051,-0.001639193074511291,103.0,0.9632041454315186,0.76888539456963,0.38415095459198056,0.8725100632919585,0.355190634727478,0.07509610282031037,0.3585913278248357,0.6842810043855231
50,1.6334222464162584,155.0150909423828,1.006118657307601,120.93795776367188,0.9987315625332915,108.04691314697266,0.992749122356558,128.13363647460938,1.0,67828.0,-0.010267488299400607,-0.0010869299543721054,-0.0015775459844426924,-0.0005448974500044863,-0.0015892202277808117,103.0,0.9619198441505432,0.7705126693007803,0.38792239193253525,0.8779073529982786,0.3548578917980194,0.06976352881790296,0.35985138880698236,0.6853906080483239
51,1.6667573943023046,155.1149139404297,1.0067665541036666,120.86893463134766,0.9981615547204276,108.01616668701172,0.9924666198745087,128.1457061767578,1.0,67716.0,-0.008316524632738798,-0.0006525437905591906,-0.0009098672955160943,-0.00021699401969459207,-0.0009257423499219069,103.0,0.9654675722122192,0.7702512453974442,0.38611258786697383,0.8764577212306338,0.35487934947013855,0.07028125444920465,0.24787347155768208,0.6637468357322073
52,1.7000925421883506,155.2048797607422,1.0073504733194416,120.87828826904297,0.9982387990642511,107.9168472290039,0.9915540597476306,128.16639709472656,1.0,67607.0,-0.009916029544099092,0.00018157259322003214,0.0001753482465784289,0.00013953861950136837,0.00012925027665839438,103.0,0.9653511643409729,0.7698364567771582,0.3846938926442528,0.8750469188853367,0.35482892394065857,0.0710966723185048,0.24898309346665287,0.6637262335630446
53,1.7334276900743968,155.1283721923828,1.006853904298428,120.84416961669922,0.9979570399243011,108.02748107910156,0.992570577983908,128.24009704589844,1.0,67471.0,-0.007316898155876439,0.0010996997472170194,0.0012770587768660537,0.0004443220562976376,0.0011976919634646638,103.0,0.9658716320991516,0.7691205604383118,0.3831720294645107,0.873286651738911,0.3547224998474121,0.07328406311075446,0.24834373286300782,0.6632353165873311
54,1.7667628379604428,155.081298828125,1.0065483766897667,120.80548095703125,0.997637540684881,108.11322021484375,0.9933583603395583,128.2806854248047,1.0,67794.0,-0.004885639375147799,0.0017477382628388284,0.001988782510978118,0.0006332590382293838,0.0018989881436992087,103.0,0.9651429057121277,0.7704172443972426,0.38819069534177064,0.8774672862116721,0.3562963306903839,0.0697505856771204,0.24835531167949967,0.6638801439350411
55,1.800097985846489,155.13961791992188,1.0069268942004,120.74698638916016,0.9971544800126992,108.1133804321289,0.9933598324368593,128.28326416015625,1.0,67461.0,-0.0028917302122605792,0.0018753276792958492,0.0020671637213829806,0.0006734449932272653,0.0020032550082643907,103.0,0.9647390246391296,0.7688343388525717,0.3847259898311617,0.8731572203310856,0.35745543241500854,0.07496667141248495,0.24841019255569885,0.662638995015439
56,1.833433133732535,155.2030029296875,1.007338291829696,120.75347137451172,0.9972080344109455,108.04350280761719,0.9927177877140081,128.01162719726562,1.0,67461.0,-0.004012083847067249,0.0014336203738801738,0.0015244169884580038,0.0005680342813720389,0.0015133754804639655,103.0,0.9640010595321655,0.7688985734967858,0.3868457330902299,0.8731572203310856,0.3593916594982147,0.07645513260247731,0.2467944441973881,0.6619060472054797
57,1.866768281618581,155.2554473876953,1.00767868028706,120.80521392822266,0.9976353355037767,107.93933868408203,0.9917607141687427,127.64259338378906,1.0,66932.0,-0.007113373816547586,0.0005840821823445378,0.0006057135352264075,0.00035379734077510127,0.0006472300649639774,103.0,0.9648230671882629,0.7670421721548237,0.3833144086535588,0.8662654500744192,0.3613291382789612,0.08591212062382708,0.24341122333114207,0.6595505065944466
58,1.9001034295046273,155.25486755371094,1.0076749168999843,120.7755355834961,0.9973902453753318,107.96957397460938,0.9920385199594031,127.35255432128906,1.0,67463.0,-0.0057077978091864545,-0.00038331055520852487,-0.00033176324564679766,9.100479585421662e-05,-0.0002660012639006367,103.0,0.9635358452796936,0.7664003478449916,0.3846108237107748,0.8731379020254967,0.36257699131965637,0.07660648417782955,0.2431703304033322,0.6605410595011354
59,1.9334385773906733,155.2174072265625,1.0074317822875813,120.80191040039062,0.9976080542632583,107.98069763183594,0.9921407255720155,127.2063217163086,1.0,67327.0,-0.006452691943794331,-0.0011779200713412077,-0.0009754777443141932,-0.00015389417860846202,-0.0009252262454752528,103.0,0.9635456800460815,0.7652898044865606,0.38458567885098105,0.8713777260078949,0.36437374353408813,0.07831489031256067,0.2451616736227665,0.6604463331833761
60,1.9667737252767195,155.22262573242188,1.0074656527712642,120.79457092285156,0.9975474432854784,107.98279571533203,0.9921600030366715,126.8626480102539,1.0,67847.0,-0.006170405324319728,-0.001617694776594885,-0.0011749658318461098,-0.0003238995351343394,-0.0011659666646508275,103.0,0.9627997875213623,0.7629028058229054,0.384895426474273,0.8781078107810781,0.3658561110496521,0.07123535883000065,0.24459445517119402,0.6608017416663603
61,2.0001088731627656,155.20457458496094,1.0073484925894016,120.74474334716797,0.9971359564914235,108.05067443847656,0.9927836815931959,127.49999237060547,1.0,66963.0,-0.0035924609502388516,-0.0016727018966231737,-0.0009713617230018518,-0.0003865361682255822,-0.000999000801782462,103.0,0.9603607654571533,0.7691013445235927,0.3901706912772725,0.8726185201595038,0.3684929311275482,0.0784748103938075,0.2707315980466825,0.6655008102153341
62,2.0334440210488114,155.1913299560547,1.0072625289056683,120.77336883544922,0.9973723519058001,108.03530883789062,0.9926425004520426,127.2447509765625,1.0,67019.0,-0.004757420864123063,-0.0014365754974937387,-0.0005388458301443477,-0.00034181970947608654,-0.0005717885009514116,103.0,0.9621268510818481,0.7682000626687954,0.3913666273743267,0.8733482759519404,0.3694950044155121,0.07430477729416977,0.27251973320998524,0.666786907579151
63,2.0667791689348576,155.01736450195312,1.0061334137463986,120.78336334228516,0.9974548886842739,108.19928741455078,0.9941491569896821,127.18933868408203,1.0,67282.0,-0.0029641399082806497,-0.0010567280289033511,-8.099156920040927e-05,-0.00021977423219991704,-8.150184747323007e-05,103.0,0.9649272561073303,0.7687692597326675,0.3917689723848875,0.8775073688603698,0.36955851316452026,0.07041500378224691,0.26461757973900896,0.6666427813160084
64,2.1001143168209038,154.9921875,1.0059700035181034,120.7835464477539,0.9974564008084597,108.22425842285156,0.9943785938690239,126.94794464111328,1.0,67713.0,-0.0026406234848945775,-0.000667687523983862,0.0002595001527616613,-7.314870456664876e-05,0.0003097393880186999,103.0,0.9633166790008545,0.7693746646384988,0.3972649269711872,0.8831285703106659,0.36940649151802063,0.06682839032788168,0.26510418974199934,0.6670323981738523
65,2.13344946470695,154.91355895996094,1.0054596684233121,120.78861236572266,0.9974982362442661,108.29781341552734,0.9950544267299266,127.19384002685547,1.0,67656.0,-0.0018527395432229588,-0.0003584270944458859,0.0004365186813729906,3.953708407932318e-05,0.0005252275801326667,103.0,0.9568589925765991,0.7697715896101848,0.3960919947972094,0.8806852203795787,0.37051188945770264,0.07020124443518784,0.25676954002601393,0.6632907749617595
66,2.1667846125929957,154.9633331298828,1.0057827254928269,120.82524108886719,0.9978007240865963,108.21142578125,0.9942606858852008,126.95765686035156,1.0,68113.0,-0.004210434736970026,-0.0001762043349277218,0.0004774151814121823,6.945558912830981e-05,0.0005693389563867389,103.0,0.9542155861854553,0.769544727144598,0.4007164564767372,0.886634037124782,0.36901429295539856,0.06457785530186665,0.25633873122605083,0.6633981313721949
67,2.200119760479042,154.931396484375,1.005575442094147,120.75687408447266,0.9972361347187313,108.311767578125,0.9951826393948567,127.04971313476562,1.0,68402.0,-0.0005818621662477819,-0.00014498180816377565,0.0004303201017996446,-5.628901780085728e-06,0.00049194985513924,103.0,0.9395824670791626,0.7728916308490006,0.4037893628841262,0.8864381520119226,0.3689083158969879,0.06132313872869825,0.25138153855150436,0.6599385484533
68,2.233454908365088,154.86196899414062,1.0051248260100598,120.7987289428711,0.9975817811055304,108.33930969238281,0.995435699930886,126.73839569091797,1.0,68685.0,-0.0016397985452965003,-0.0002713844738450661,0.00032269982538722387,-0.00017595219972654254,0.0003427666528518377,103.0,0.936016321182251,0.7710756836766883,0.40656620805124843,0.8901056178319187,0.3700430393218994,0.06200997861724875,0.2502293077091068,0.658343481993962
69,2.2667900562511343,154.94007873535156,1.0056317938637833,120.71829986572266,0.9969175805569274,108.34161376953125,0.9954568700920718,126.97140502929688,1.0,68245.0,0.0011265856296179821,-0.0005284563559450545,0.00015703939128779154,-0.0003967495041205253,0.00015376355037411378,103.0,0.917801558971405,0.7755391115344225,0.4106234889002857,0.8815588911566383,0.36963731050491333,0.06947063838582168,0.2446919188218917,0.6523812936723826
70,2.3001252041371805,154.863525390625,1.0051349277332635,120.75631713867188,0.9972315353409995,108.38016510009766,0.9958110847426415,126.6006851196289,1.0,69149.0,0.0003419807895312932,-0.0008334501734742881,-5.9795490309417706e-05,-0.0006010209373827912,-5.3772349299167023e-05,103.0,0.9150275588035583,0.7740145675762965,0.4148722324256316,0.8932363655152815,0.3700447678565979,0.059394941483452604,0.2442696206741963,0.6529105367136357
71,2.333460352023226,154.83653259277344,1.0049597321612307,120.81813049316406,0.9977420032640485,108.34534454345703,0.9954911489292237,127.63558197021484,1.0,68500.0,-0.002202089452922995,-0.0010481927693785705,-0.0002807893202186038,-0.0007139687340009864,-0.00024053473620651384,103.0,0.9578170776367188,0.7791435523114355,0.41934306569343066,0.8862266152612105,0.3680436313152313,0.06301912179470592,0.3477664233576642,0.6847532050558467
72,2.3667954999092724,154.8141632080078,1.0048145446493029,120.84392547607422,0.99795502375872,108.34188842773438,0.995459393687445,127.80525970458984,1.0,68487.0,-0.003116786382907133,-0.0010171988044973801,-0.0004076003961855659,-0.0006739218543656618,-0.0003327492957641781,103.0,0.9613996148109436,0.7795299351215071,0.4233066129338415,0.8860584262685332,0.36527520418167114,0.06005640800062101,0.34625549374333814,0.6858979641956057
73,2.4001306477953186,154.80319213867188,1.0047433374043668,120.73832702636719,0.9970829691397468,108.4584732055664,0.9965305898234739,128.12478637695312,1.0,68405.0,0.0019862913928286874,-0.0006302312448971117,-0.0003183222983393042,-0.00044923175464634744,-0.00023074898442947936,103.0,0.958368718624115,0.781122237653193,0.42531978656530955,0.8810762770808109,0.36403438448905945,0.06706767304670393,0.3342007163219063,0.681925942763576
74,2.433465795681365,154.73800659179688,1.004320253467835,120.81489562988281,0.9977152890700998,108.44711303710938,0.9964262111148458,127.87911224365234,1.0,68813.0,-0.0007543402558573553,0.00012331382940041603,7.610793686533353e-05,-5.223059215648264e-05,0.0001472815828199089,103.0,0.9557201266288757,0.7799107726737681,0.43004955458997574,0.886331435637188,0.36161860823631287,0.06288157860841341,0.33298940607152716,0.6814490148289318
75,2.4668009435674105,154.82928466796875,1.004912689822782,120.71153259277344,0.996861694967228,108.45915985107422,0.9965368988119068,128.25595092773438,1.0,68407.0,0.002916855450094402,0.0011364304232722292,0.0007746486694236155,0.0004623484556740398,0.0008140453849461824,103.0,0.9446150660514832,0.7853143684125894,0.4342538044352186,0.8805689644075433,0.3604315519332886,0.06604878676707215,0.3226570380224246,0.6771802419171421
76,2.5001360914534567,154.80821228027344,1.0047759204135238,120.72657012939453,0.9969858781659849,108.46520233154297,0.996592417910116,128.0753173828125,1.0,68723.0,0.0024907821177507228,0.0022101508306077815,0.0016578601402291754,0.0010012488702001096,0.0016705022642846136,103.0,0.9415249228477478,0.7862384742614069,0.44087132401088425,0.8846366737465405,0.35906368494033813,0.06383471712685847,0.3212752644675,0.676670423717421
77,2.533471239339503,154.91148376464844,1.0054461994590407,120.63301086425781,0.9962132457122267,108.45549774169922,0.9965032508735981,128.42466735839844,1.0,67812.0,0.005547341757140278,0.0031093851832781193,0.0025058917511942193,0.001454584012690115,0.0025131807020814254,103.0,0.9310116171836853,0.7893784777522169,0.44328437444700053,0.8757958904286508,0.3593719005584717,0.07049038473956787,0.3145903379932755,0.672268205886689
78,2.566806387225549,154.7801971435547,1.0045940893958571,120.69176483154297,0.9966984485603383,108.52806091308594,0.997169970751209,128.22640991210938,1.0,68046.0,0.004499893481268169,0.0036260858974507585,0.0030601764783119846,0.0017153256376272112,0.003083901211093409,103.0,0.9285709261894226,0.7886037876338555,0.44705052464509304,0.8788180139224322,0.35741981863975525,0.06761032688010953,0.3124357052582077,0.6715329778249508
79,2.6001415351115953,154.68539428710938,1.0039787756089489,120.79593658447266,0.9975587212116973,108.51864624023438,0.9970834675098073,128.2024383544922,1.0,67970.0,0.0008469540178210333,0.0036301672272380263,0.0031079832119888695,0.0017043803083954018,0.003157332688565516,103.0,0.9279078841209412,0.7875974694718257,0.44705016919229074,0.8778364695398365,0.35642173886299133,0.06996086737527284,0.3124760923937031,0.6707979446232974
80,2.633476682997641,154.8029327392578,1.004741653783833,120.64020538330078,0.9962726595916929,108.5568618774414,0.9974345977660318,128.41551208496094,1.0,68114.0,0.006635771322651973,0.003099066779199503,0.002559251129923976,0.0013902066504677159,0.002627921794313605,103.0,0.9173623323440552,0.7910904268334459,0.45018645212437974,0.8765603685687077,0.3564318120479584,0.06902941857771601,0.30857092521361246,0.6682281465229909
81,2.6668118308836872,154.79693603515625,1.004702732438548,120.68173217773438,0.9966155967559925,108.52134704589844,0.9971082828643099,128.68954467773438,1.0,68238.0,0.004771515230280687,0.0021245747566169724,0.001486641567559878,0.0007960549033021664,0.001557785651148578,103.0,0.9610931873321533,0.7891985892513458,0.45077522787889446,0.8781561269400047,0.3580697476863861,0.07608164105731861,0.3618511679709253,0.6883101857083216
82,2.7001469787697334,154.83506774902344,1.004950224657039,120.80933380126953,0.9976693582979568,108.35559844970703,0.9955853631564878,128.34619140625,1.0,68467.0,-0.0017040471249600286,0.0008957853752058182,0.00011157186212792404,1.3968001202528308e-06,0.00016768994619701947,103.0,0.9645134806632996,0.7919581696291643,0.4567309798881213,0.8811031323192546,0.35548484325408936,0.0692353228836898,0.36202842245169203,0.6908480369206058
83,2.7334821266557796,154.6865234375,1.0039861043100966,120.73389434814453,0.9970463631334161,108.5795669555664,0.9976432149835452,128.73159790039062,1.0,68367.0,0.003767525059384713,-0.0003433805984940608,-0.0012620086672464504,-0.0008704122724831972,-0.0012312310234374882,103.0,0.9672740697860718,0.7913320754165021,0.451109453391256,0.8745155224682452,0.354674756526947,0.07696637118334036,0.352275220501119,0.6882253572407077
84,2.7668172745418254,154.8726043701172,1.0051938544519519,120.77021789550781,0.9973463307687699,108.35718536376953,0.9955999439297549,128.26904296875,1.0,68595.0,-0.00034335793245687807,-0.0013566665375657862,-0.0023439800225983527,-0.0016768180123246604,-0.0023411897532708958,103.0,0.9673749804496765,0.7933668634740142,0.4577009986150594,0.8774319812732645,0.35355088114738464,0.07422899318213796,0.35049201836868576,0.688738882571817
85,2.8001524224278715,154.83480834960938,1.0049485410365049,120.8416748046875,0.9979364372322699,108.32351684570312,0.9952905931969301,127.93724822998047,1.0,68291.0,-0.003199931550089019,-0.0019810713175199986,-0.0029489191079932558,-0.0022772206548224796,-0.002968756243494946,103.0,0.9663233160972595,0.793174307985923,0.46104171852806375,0.8735433695332386,0.35244280099868774,0.08171201248449032,0.3516715233339679,0.6874760732907746
86,2.8334875703139177,154.80247497558594,1.004738682688773,120.80130004882812,0.9976030138493057,108.3962631225586,0.9959589954714564,128.10723876953125,1.0,69219.0,-0.0008795550537233909,-0.0021712365747747625,-0.0030461570834211063,-0.0025620075506960823,-0.0030782804266755327,103.0,0.9612401127815247,0.7943917132579205,0.46039382250538147,0.8815685575282101,0.35169169306755066,0.07030235105326167,0.3417703231771623,0.6862940593138759
87,2.866822718199964,154.75379943847656,1.0044227562474022,120.83198547363281,0.9978564206607724,108.41425323486328,0.9961242909683974,128.06967163085938,1.0,69137.0,-0.0016819786808262016,-0.0020014169392143467,-0.002749414721279971,-0.002472262403626962,-0.0027804759237287993,103.0,0.9604328274726868,0.7935885753407486,0.4626466291566021,0.8805242110089406,0.351479172706604,0.07218726916121145,0.3407148126184243,0.6854189213942123
88,2.90015786608601,154.7404022216797,1.0043358021986486,120.82556915283203,0.9978034333090957,108.43402862548828,0.9963059898352639,127.87828826904297,1.0,69262.0,-0.0012018827240932728,-0.0016203254118186136,-0.002252134260865114,-0.00200967091233967,-0.002269610144698892,103.0,0.9581502079963684,0.7925076761668254,0.4663884958563137,0.8821162026541685,0.35189288854599,0.07195802236429863,0.33927694839883343,0.6843811933339361
89,2.933493013972056,154.75192260742188,1.0044105747576564,120.745849609375,0.9971450922417125,108.50221252441406,0.9969324723866473,128.62109375,1.0,69041.0,0.002394754500042229,-0.0011791012951294071,-0.0017392098434056884,-0.0012374410266278101,-0.0017381988917758871,103.0,0.9443764686584473,0.7967053393394262,0.4663171159166293,0.873892461141208,0.35016098618507385,0.07771758391980153,0.32945640995929953,0.6788916535971887
90,2.966828161858102,154.53981018066406,1.0030338683433941,120.83612060546875,0.9978905694653012,108.6240463256836,0.9980518972342519,128.32257080078125,1.0,70724.0,0.0009160282506831541,-0.0007706383468799647,-0.0013166484299651981,-0.0002696775619648177,-0.00130606024109727,103.0,0.9392013549804688,0.7914427916973023,0.4661642441038403,0.8951951799908865,0.34951746463775635,0.05828818793985115,0.3293365759855212,0.6796301022113057
91,3.0001633097441482,154.68907165527344,1.0040026434059302,120.86231231689453,0.9981068662290419,108.44863891601562,0.9964402310891409,129.4900360107422,1.0,69628.0,-0.002241572446282758,-0.00041385246438892774,-0.0009908409077102318,0.0007490652659787417,-0.0009934551376343536,103.0,0.9621133804321289,0.8004346910246835,0.4743206755902798,0.8796189850550172,0.34589287638664246,0.061017976931920105,0.29108979146320446,0.6790703652965026
92,3.0334984576301944,154.7147979736328,1.0041696189482974,120.80866241455078,0.9976638138426089,108.47651672363281,0.9966963760195152,129.1864776611328,1.0,69798.0,-5.2876502334764375e-05,-8.807681390069253e-05,-0.0007027275826678,0.001667787485182458,-0.0007461898535562817,103.0,0.9660954475402832,0.801498610275366,0.479025186968108,0.8811988688011312,0.34445691108703613,0.05972881527118473,0.27979311728129747,0.678225596953014
93,3.06683360551624,154.74754333496094,1.0043821512815834,120.74531555175781,0.997140681879504,108.50716400146484,0.9969779672032354,129.19300842285156,1.0,69152.0,0.002501497875567582,0.00021057574454101858,-0.00039340259435032893,0.0023534887443457096,-0.0004947011875707646,103.0,0.9624948501586914,0.8021990205151935,0.48112852845904674,0.8730321049375702,0.34512877464294434,0.07178477193248242,0.2697535863026377,0.6735286703940419
94,3.1001687534022864,154.7943878173828,1.0046861933427145,120.78648376464844,0.9974806578006065,108.41913604736328,0.9961691548861422,128.791015625,1.0,69634.0,-3.1768628338701976e-05,0.00043204486174115307,-6.265450993334169e-05,0.0027121701332189605,-0.00021592738275880578,103.0,0.9602111577987671,0.8032139472096964,0.49090961312002757,0.8791172720271686,0.34474340081214905,0.06575010415483089,0.26900651980354423,0.673976866187567
95,3.1335039012883326,154.85348510742188,1.0050697617149495,120.74726104736328,0.9971567481989779,108.39925384521484,0.995986474621075,128.99777221679688,1.0,69539.0,0.0010479966534465146,0.00047969221889309716,0.00021188715576034452,0.0027031697663053088,3.568702764274977e-05,103.0,0.9496827125549316,0.8067559211377788,0.49326277340772806,0.876468364003025,0.344882607460022,0.0664608016133098,0.2634492874502078,0.6708279915982007
96,3.1668390491743788,154.9281463623047,1.0055543473192214,120.66510772705078,0.9964783084809588,108.40670776367188,0.9960549621955074,128.872314453125,1.0,69541.0,0.003939564391823802,0.0002573918370409985,0.00030499393933349276,0.002342436432788968,0.00014401767330316761,103.0,0.9486845135688782,0.80667999213893,0.4962971484448023,0.8764935719687421,0.34438225626945496,0.06804890345349131,0.26260767029522153,0.6701408363264912
97,3.200174197060425,154.9917449951172,1.0059671314595455,120.74278259277344,0.9971197641616008,108.26543426513672,0.9947569228753813,128.61656188964844,1.0,69342.0,-0.0005235028543219555,-0.000272176542304246,0.00010786263194019389,0.001697129787001462,-1.1537437300384141e-05,103.0,0.9472013711929321,0.8074327247555594,0.49678405583917395,0.8739853793798841,0.34438255429267883,0.07253592135114696,0.2623374001326757,0.6691486203596966
98,3.2335093449464707,155.07687377929688,1.0065196561041876,120.71870422363281,0.9969209198311709,108.20441436767578,0.9941962641033141,128.43411254882812,1.0,69692.0,-0.0004911364179678857,-0.001051337904018625,-0.0004058257617243611,0.0008740130425314072,-0.0004819514212336303,103.0,0.948697030544281,0.8072901719948726,0.4988664409114389,0.8783967733803882,0.34441471099853516,0.06604487017897656,0.26344487172128794,0.6707540871506661
99,3.266844492832517,155.0915985107422,1.0066152263286148,120.7545394897461,0.9972168551353626,108.15386199951172,0.9937317823549123,128.4256591796875,1.0,69511.0,-0.002357221674602117,-0.001931837377789771,-0.0011437321740252792,-2.526926903625308e-06,-0.0011993122355644671,103.0,0.9485945701599121,0.8073877995329276,0.4980506682395592,0.8761154524829846,0.34408947825431824,0.06830098311066297,0.26414524319891813,0.6705270937886412
100,3.300179640718563,155.1084442138672,1.0067245626268198,120.71955108642578,0.9969279134055301,108.17204284667969,0.9938988303486403,128.2963104248047,1.0,69660.0,-0.0009273254692812594,-0.0027153851461338353,-0.001906643332172685,-0.0008081935295605772,-0.0019716612249817186,103.0,0.9475160837173462,0.8077280122499761,0.49649727246626474,0.8779934459289135,0.34446853399276733,0.06712881270481472,0.2630778064886592,0.6702995746442934
101,3.3335147886046093,155.1473846435547,1.0069773037799163,120.70711517333984,0.996825214971246,108.1455078125,0.9936550229956459,128.53187561035156,1.0,69225.0,-0.0008433813044669836,-0.0032109267504037164,-0.002446248515825703,-0.0014400506194714507,-0.0025390266953414157,103.0,0.9635210037231445,0.806803900325027,0.49678584326471653,0.8725107133854298,0.34544453024864197,0.0734182001512478,0.37727699530516434,0.6959495180326247
102,3.366849936490655,155.2877197265625,1.007888142488784,120.72235107421875,0.9969510363045376,107.98990631103516,0.9922253361168873,128.31417846679688,1.0,69739.0,-0.0033726483540195695,-0.0032884601110240354,-0.0025489353202087163,-0.0018299589774183605,-0.0026650084195521265,103.0,0.9627826809883118,0.8074391660333529,0.4990464446005822,0.8789891605747416,0.34533748030662537,0.06639778169901689,0.37648948221224854,0.6968577548243555
103,3.400185084376701,155.1883087158203,1.0072429196782726,120.70701599121094,0.9968243959039788,108.10464477539062,0.993279568084019,128.57334899902344,1.0,69724.0,-0.0013580789179815644,-0.0029151099785125405,-0.0021149276219235833,-0.0019516167194189426,-0.0022303279963557573,103.0,0.963114857673645,0.8074694509781425,0.49837932419253056,0.8788001008318629,0.34471315145492554,0.06508696748172423,0.37787562388847457,0.6974338145946588
104,3.4335202322627474,155.23130798339844,1.0075220045409006,120.71800994873047,0.9969151863602999,108.0506820678711,0.9927837516930673,128.28076171875,1.0,70205.0,-0.002424893369907366,-0.0021638194913430778,-0.0012015605700321655,-0.0018224668451133229,-0.0012892345451344228,103.0,0.9647672176361084,0.8092870878142583,0.5010326899793462,0.8831928544471003,0.34387534856796265,0.06288841363693547,0.3668114806637704,0.6963493719227232
105,3.4668553801487936,155.1376495361328,1.0069141184916421,120.66202545166016,0.9964528543904981,108.20034790039062,0.9941589008718172,128.52345275878906,1.0,70129.0,0.0014228460136574972,-0.0011898435456012897,-1.0390844258241608e-05,-0.0014939261517726617,-5.508010885382044e-05,103.0,0.9643097519874573,0.8066990831182536,0.5019036347302828,0.8822367593407976,0.34343406558036804,0.06519059001132217,0.3673801137903007,0.6954627829767636
106,3.5001905280348398,155.11724853515625,1.0067817066884721,120.68620300292969,0.9966525177881953,108.19657135009766,0.9941242014354366,128.21121215820312,1.0,71448.0,0.00055908957112627,-0.00017976705239446542,0.0011817037076769844,-0.001042470528580616,0.0011748643840732477,103.0,0.9553003311157227,0.8092972044937111,0.5038629492777964,0.8917067082683308,0.34350284934043884,0.053778471138845554,0.34912103907737096,0.6919041761109318
107,3.5335256759208855,155.02549743652344,1.0061862002019633,120.68160247802734,0.9966145256680276,108.29289245605469,0.9950092123128245,128.576171875,1.0,71210.0,0.0019702445161836613,0.0007102349167907081,0.0021239178530603918,-0.0005515941424498285,0.0021368562680179103,103.0,0.9453478455543518,0.8113139540326734,0.509254318213734,0.8899136455091916,0.3425980508327484,0.05492445544183257,0.3396011796096054,0.6877320752463506
108,3.5668608238069317,154.9623565673828,1.0057763871566991,120.70526885986328,0.9968099677190394,108.33235931396484,0.9953718389479712,128.64227294921875,1.0,71388.0,0.0016845845368509416,0.001403546796994203,0.002685462147235637,-9.964747678451968e-05,0.002700180965566819,103.0,0.9306253790855408,0.8126762667862012,0.5145262509105172,0.89170351495166,0.34359583258628845,0.052374528466861525,0.3294531293774864,0.6827022994494248
109,3.600195971692978,154.94024658203125,1.0056328832653052,120.64000701904297,0.9962710214571583,108.41975402832031,0.9961748329757318,128.6253204345703,1.0,70784.0,0.005039744967616611,0.0019196045350819114,0.0029011186807650054,0.000254883538031671,0.002913918870329548,103.0,0.9118165969848633,0.8151606766124172,0.5230278028933092,0.8875402806164031,0.34291908144950867,0.05909495567564856,0.31973327305605787,0.6754777462718071
110,3.633531119579024,154.90838623046875,1.0054260950491352,120.67298126220703,0.9965433298209472,108.4186782836914,0.9961649488938537,129.0340576171875,1.0,71592.0,0.003912597298728171,0.0023489773015540646,0.0029446621890576426,0.0004786796801300559,0.0029681916700898133,103.0,0.8936640024185181,0.815277312176407,0.5251285059783216,0.8955716787590693,0.34086328744888306,0.05060045033775332,0.31302380154207177,0.6709801512942848
111,3.66686626746507,155.0023956298828,1.0060362589379395,120.64708709716797,0.9963294902590084,108.35049438476562,0.9955384663424702,129.95303344726562,1.0,71168.0,0.003913106331747129,0.002794081574938767,0.00303682364928045,0.000567902363356681,0.003092571465402708,103.0,0.9633169770240784,0.8188043315347722,0.527048673561151,0.8870497320204412,0.3375874161720276,0.05616352985167643,0.3068654451438849,0.6869770348154827
112,3.700201415351116,155.01686096191406,1.0061301455418328,120.659912109375,0.9964354019571873,108.32322692871094,0.9952879294018141,130.06741333007812,1.0,71616.0,0.0031302706831624616,0.003299594223118528,0.003326218200281176,0.0005426974779207307,0.0034288859579030746,103.0,0.9666034579277039,0.8228561587727138,0.5366538203753352,0.8934800509020137,0.33460733294487,0.051139057314669265,0.2958975647899911,0.6872193600241199
113,3.733536563237162,155.0885772705078,1.0065956171012194,120.58252716064453,0.9957963404731728,108.32891082763672,0.9953401538060639,130.03643798828125,1.0,71562.0,0.005837321737556855,0.0038075028891927563,0.003799427525986748,0.00044122234982200547,0.003946567124320118,103.0,0.9557976126670837,0.826532703576386,0.5458483552723512,0.8915938851027247,0.333374947309494,0.05706240733588328,0.28696794388083063,0.6825195474844729
114,3.7668717111232084,155.1798858642578,1.0071882515291704,120.55225372314453,0.9955463359411241,108.26783752441406,0.9947790043348963,130.01275634765625,1.0,71377.0,0.006078902269999686,0.004165850012118593,0.004268529131903941,0.0003077842506668798,0.004439307538770594,103.0,0.9437036514282227,0.8288337513017732,0.5521806744469507,0.8901762218924211,0.3322979211807251,0.05496177493982515,0.28007621502724966,0.6789140221324883
115,3.8002068590092546,155.02081298828125,1.00615579599585,120.63153839111328,0.996201085713566,108.34764862060547,0.9955123190904096,129.72756958007812,1.0,71296.0,0.004428386342119672,0.0041950931659377405,0.004450628071636322,0.00018334593669591388,0.004616212642806584,103.0,0.9381227493286133,0.8267410981448234,0.5551503590664273,0.8891660327001983,0.3332395553588867,0.061895913098786524,0.27979129263913827,0.6759338193931399
116,3.8335420068953003,155.21282958984375,1.0074020713369822,120.49993133544922,0.9951142464550379,108.28727722167969,0.9949576188074178,129.8533935546875,1.0,70382.0,0.008119790252208603,0.003784040157272617,0.004108468150207491,9.7702464686352e-05,0.004248279265344027,103.0,0.9228449463844299,0.8344368351756605,0.5654002443806655,0.8756920856506538,0.3321171700954437,0.07084468664850137,0.27117728964792137,0.6704989116970637
117,3.8668771547813465,155.21774291992188,1.007433961090625,120.57968139648438,0.9957728395431188,108.20256805419922,0.9941792999344169,129.9202117919922,1.0,70366.0,0.004319530474542421,0.0029673402858175703,0.003186371545282379,6.267596799595041e-05,0.0032986505993708665,103.0,0.9213156700134277,0.834801845588305,0.566054628655885,0.87549301382305,0.3318794071674347,0.07398006793326117,0.27103999090469827,0.6696604739326358
118,3.9002123026673927,155.2082061767578,1.007372063276877,120.59722137451172,0.9959176884390815,108.19454193115234,0.9941055548696238,129.90541076660156,1.0,70334.0,0.003625871033117456,0.001940688746837199,0.0018708274844812468,7.537907883797606e-05,0.0019751634951265264,103.0,0.9217990636825562,0.8343901953535986,0.5659282850399522,0.8750948701678425,0.33113420009613037,0.07207644358179986,0.2707225523928683,0.6699400844968444
119,3.933547450553439,155.22044372558594,1.0074514905514786,120.62386322021484,0.9961377025081122,108.15567779541016,0.9937484661243238,129.92747497558594,1.0,70358.0,0.002223522153366797,0.0009976767383470422,0.0005357196942130432,0.00011896450715821311,0.0006603752794641745,103.0,0.923348605632782,0.834304556695756,0.5643281503169505,0.8753934779092482,0.3301461637020111,0.06998618939195998,0.27070127064441857,0.6706405265735169
120,3.9668825984394847,155.1414031982422,1.0069384814711335,120.60579681396484,0.9959885062551154,108.25276947021484,0.9946405570887307,130.3914031982422,1.0,70753.0,0.004101926671018774,0.0004101944938313507,-0.0004136690104347937,0.00017248180595678394,-0.00024837181537927836,103.0,0.9270525574684143,0.8341177523685687,0.5599338543948666,0.8803080636532169,0.3292873799800873,0.06151319472957337,0.272285274122652,0.673201633508616
121,4.000217746325531,155.06288146972656,1.0064288396318561,120.65483093261719,0.996393440511032,108.28225708007812,0.9949114930919865,130.8641357421875,1.0,71351.0,0.002825669509355533,0.00030287278208900194,-0.0007313550419872527,0.00021672751918115065,-0.000528821258720287,103.0,0.9641162157058716,0.826365432860086,0.546957996384073,0.8877483732099088,0.3296035826206207,0.05694698468391127,0.30682120783170524,0.6885548645154004
122,4.033552894211577,154.8556365966797,1.0050837258617311,120.71107482910156,0.9968579146567634,108.43329620361328,0.9962992602476022,130.400634765625,1.0,72715.0,0.0028811743618094576,0.0005783675928741911,-0.0004651619172599135,0.00024259669743779922,-0.00025378689090298874,103.0,0.9580807685852051,0.8164065186000138,0.530674551330537,0.9031236415574737,0.3355461657047272,0.04922064211637583,0.2987004056934608,0.684666274266376
123,4.066888042097623,154.858154296875,1.0051000668845607,120.7512435913086,0.9971896369000186,108.390625,0.9959071916664354,129.65809631347656,1.0,73008.0,0.0009702180993740317,0.0009340692458468632,3.78660745338623e-05,0.0002521029213102401,0.0002165188248160133,103.0,0.9444097876548767,0.8155818540433925,0.5259971509971509,0.9095869930854046,0.3381381630897522,0.04730579953902697,0.2779695375849222,0.6772437973131378
124,4.100223189983669,154.90505981445312,1.0054045050916998,120.6668701171875,0.9964928626762468,108.4280776977539,0.9962513119355124,129.19566345214844,1.0,73169.0,0.0043263276680231,0.000977377232417867,0.0002723005493655127,0.000259017691130166,0.0003855491270655693,103.0,0.9227035641670227,0.8141061560679158,0.5182112643332559,0.9098924330037929,0.33883026242256165,0.04349934713672822,0.2535636676734683,0.667249960248156
125,4.133558337869715,155.0899200439453,1.006604332313395,120.54447937011719,0.9954821336684029,108.36560821533203,0.9956773341878647,128.58261108398438,1.0,72923.0,0.007677400561121095,0.00040260636567253795,-0.0001920080346138032,0.0002817802447989574,-0.0001510086360795022,103.0,0.8977466821670532,0.8142058518345835,0.5143644666291842,0.9029370248384141,0.34000661969184875,0.05063024689829375,0.2284327304142726,0.6548635474878075
126,4.166893485755762,155.07225036621094,1.0064896480440824,120.6406021118164,0.9962759358607621,108.2871322631836,0.9949562869098598,127.9670639038086,1.0,73086.0,0.003402262699513048,-0.0008467641532089305,-0.0014889563032806717,0.0003355975292538567,-0.001498577276437996,103.0,0.8741647005081177,0.8116739183975042,0.5056508770489561,0.9079570159637245,0.34109407663345337,0.04336915336356295,0.21283145882932436,0.6465031860342251
127,4.2002286336418075,155.3652801513672,1.0083915450284355,120.63109588623047,0.9961974314134504,108.00360870361328,0.9923512354860587,127.08839416503906,1.0,72306.0,5.4254547731114044e-05,-0.002515144268742813,-0.0033579087562146627,0.0004247836034203698,-0.003381669371535528,103.0,0.8550742864608765,0.8109700439797528,0.5008712969878019,0.8999103898043511,0.34070727229118347,0.049907900632249716,0.1973695129034935,0.6374512188907084
128,4.233563781527853,155.4422607421875,1.008891184181011,120.59066772460938,0.9958635669942655,107.96708679199219,0.9920156674013019,126.00142669677734,1.0,72714.0,0.0009593881663524373,-0.004116414634488196,-0.005227002725210287,0.0005360799042602538,-0.005235499508507599,103.0,0.8370609283447266,0.8090693218178985,0.4957229694419232,0.9027076013953893,0.3414314389228821,0.044046628843838066,0.18102428693236516,0.6302364932212203
129,4.2668989294139,155.07240295410156,1.0064906384091024,120.682373046875,0.9966208891906427,108.2452163696289,0.9945711582159692,126.45829010009766,1.0,73778.0,0.0014587468498714617,-0.005134198448054221,-0.006451671018033066,0.0006383093558673861,-0.006437939939099612,103.0,0.7995672821998596,0.9547290520209276,0.9072216649949849,0.918390718749222,0.34657523036003113,0.05102447282595165,0.16294830437257718,0.6452633761765136
130,4.300234077299946,155.9131317138672,1.011947351596141,120.54670715332031,0.9955005311793299,107.5401611328125,0.9880930187932327,124.32131958007812,1.0,71605.0,-0.003072614916982075,-0.00525290222134707,-0.00660430697034556,0.0006867656283373282,-0.0065853866651253996,103.0,0.805018961429596,0.811707748527803,0.4909433698764053,0.8972720323797351,0.3378712832927704,0.04280540831798303,0.15512883178548983,0.6177731910891803
131,4.333569225185991,154.9630889892578,1.005781140908795,120.74209594726562,0.9971140936959041,108.2948226928711,0.995026947580308,127.74058532714844,1.0,71554.0,8.664514921208344e-05,-0.004511457075587531,-0.005680385170026185,0.0006350516846180877,-0.005683425273691067,103.0,0.9641324281692505,0.7976772786986053,0.4753053637812002,0.8983553044569994,0.3438187539577484,0.04426867545511613,0.390278670654331,0.7015413088400813
132,4.366904373072038,154.919677734375,1.005499382060613,120.68134307861328,0.9966123834920977,108.39900207519531,0.9959841613253163,127.2254409790039,1.0,72099.0,0.003506347254523312,-0.0033023832371007035,-0.004119792109176956,0.00044614319398328395,-0.004166048934126843,103.0,0.9520261287689209,0.7955635075844788,0.4691327202873826,0.9088491113071978,0.3461636006832123,0.04171183663179125,0.366523807542407,0.6937501013565208
133,4.400239520958084,154.82652282714844,1.0048947642159205,120.61031341552734,0.9960258053183646,108.56317901611328,0.9974926404596142,126.81766510009766,1.0,71668.0,0.008052865906750972,-0.002208893091771187,-0.0026257627028866016,0.00010827174663399176,-0.00271909817318039,103.0,0.9346213936805725,0.794054994325687,0.46161466763409054,0.9037009015824979,0.34751999378204346,0.04751276716474371,0.3429145504269688,0.6834472146243153
134,4.43357466884413,154.6351318359375,1.0036525493713704,120.68643951416016,0.9966544709486019,108.67843627929688,0.9985516392180062,126.70233154296875,1.0,72356.0,0.006969070888501239,-0.0017517468080366135,-0.0018586003753093773,-0.00035837770257838105,-0.0019874029047230544,103.0,0.9124020934104919,0.7931938378756888,0.4562717673724363,0.9141629816803537,0.35066497325897217,0.03720783322804801,0.32470009397976674,0.6757260564072264
135,4.466909816730176,154.71153259277344,1.00414842513687,120.74699401855469,0.9971545430178737,108.54145812988281,0.9972930661255213,126.0843734741211,1.0,71690.0,0.0031428017175028633,-0.0021622542376914626,-0.0021410109119052658,-0.0008989323725836458,-0.0022867963610945863,103.0,0.8933672904968262,0.7913191054075418,0.44910029292788395,0.9067796610169492,0.35067564249038696,0.04137364027321022,0.31021062909750313,0.6670279870815019
136,4.500244964616222,154.95848083496094,1.0057512318851918,120.68505096435547,0.9966430040068598,108.3564682006836,0.9955933545418362,125.1673355102539,1.0,71263.0,0.002852909798559622,-0.003280811782704582,-0.003307091607369274,-0.0014313971852591768,-0.003454653779971238,103.0,0.8766894936561584,0.7918555210979049,0.44237542623801973,0.9025774175163067,0.34993675351142883,0.039769488949401556,0.30026802127331154,0.6612339636563788
137,4.5335801125022686,155.26116943359375,1.007715818975309,120.50814056396484,0.9951820400227003,108.2306900024414,0.9944376880606784,124.32630157470703,1.0,70311.0,0.007233917079059682,-0.00461626425019108,-0.004761538163468942,-0.0018610042039596726,-0.0049036029194897465,103.0,0.859138548374176,0.79419057236184,0.4399453855015574,0.8933258795278692,0.3479381799697876,0.04759424193527895,0.2863989987341952,0.6532874726031064
138,4.566915260388314,155.13446044921875,1.0068934198627248,120.61370849609375,0.9960538426209758,108.2518081665039,0.9946317245049248,123.49735260009766,1.0,70395.0,0.003929671281888536,-0.0055330167691278855,-0.005722533359490123,-0.0021010803932986813,-0.005860782587702886,103.0,0.8404276967048645,0.7951985226223454,0.436479863626678,0.8947796575699414,0.34699657559394836,0.04133565518030328,0.2746643937779672,0.6474658026274301
139,4.600250408274361,155.65060424804688,1.01024342857928,120.45764923095703,0.994765071778472,107.89173889160156,0.9913233610706021,122.13426208496094,1.0,69611.0,0.004564548467121565,-0.00549101740443512,-0.005543676242411161,-0.0020900110769485284,-0.005684172767603227,103.0,0.8237311244010925,0.7941560960193073,0.433738920572898,0.8809623245630687,0.3434511423110962,0.04810357264892365,0.2639238051457385,0.6398521897094545
140,4.633585556160407,156.13241577148438,1.0133706051663418,120.40621185302734,0.9943402908926171,107.46139526367188,0.9873693077201118,120.32025909423828,1.0,68569.0,0.0007362910025742742,-0.004251082100122976,-0.003979081647618436,-0.001810573318643735,-0.004131277890823996,103.0,0.8125446438789368,0.7947177295862562,0.4344091353235427,0.87002144316293,0.33498889207839966,0.048240772461395964,0.253336055651971,0.6350283944235563
141,4.666920704046452,153.59523010253906,0.9969031127237631,120.86519622802734,0.9981306821849679,109.53955841064453,1.006463741611661,126.52273559570312,1.0,72044.0,0.012109658254404132,-0.001969550118723239,-0.0012822808064861194,-0.001290554492401985,-0.0014520053955437825,103.0,0.9445301294326782,0.9224224085281217,0.8237327188940092,0.9181790375203915,0.35645419359207153,0.05083860114192496,0.3485786463827661,0.7121985671576392
142,4.700255851932499,153.51832580566406,0.9964039687536975,120.89192199707031,0.9983513893109172,109.58975982666016,1.006924998765975,126.3802490234375,1.0,73020.0,0.011859524689818102,0.0008555380309062598,0.001898154781460851,-0.000605616866936474,0.0017095374711488863,103.0,0.9284748435020447,0.8991874372318086,0.7656943303204602,0.9293505237301294,0.3593200147151947,0.04438024207404768,0.32315803889345385,0.6994869673687161
143,4.733590999818545,153.5337677001953,0.9965041936937187,120.83621978759766,0.9978913885325685,109.6300277709961,1.0072949858876268,126.0938720703125,1.0,72873.0,0.014278896391043738,0.0035653561422405024,0.00477629337571144,0.00014165100220183593,0.004577659330785314,103.0,0.9116716980934143,0.8634336448341635,0.6550711511808214,0.9265362169584621,0.3632865250110626,0.04666183519599242,0.30035815734222554,0.6832103913272726
144,4.766926147704591,153.6570587158203,0.9973044086298556,120.74661254882812,0.9971513927591533,109.59630584716797,1.0069851444557016,125.51805114746094,1.0,72442.0,0.016889547586639075,0.0055737773156476185,0.006726660509303043,0.0008373685552651828,0.0065344969776683455,103.0,0.8953889608383179,0.8452877244324194,0.5968360895613042,0.923545685182116,0.36486634612083435,0.04686444243297339,0.2797134259131443,0.6713491594894165
145,4.800261295590637,153.766357421875,0.998013807093661,120.65923309326172,0.996429794496665,109.57439422607422,1.0067838176248218,125.09371948242188,1.0,71783.0,0.019578000671472418,0.006560715983053703,0.007497575682166607,0.0013825182254141874,0.0073322358397295735,103.0,0.8791329860687256,0.8125182842734352,0.4896145326887982,0.9152259281925744,0.36397114396095276,0.055130558955528354,0.26061880946742266,0.6555897758324685
146,4.833596443476683,153.95079040527344,0.9992108612933005,120.67091369628906,0.9965262554186828,109.37828826904297,1.0049819705283958,124.10941314697266,1.0,72051.0,0.016644396704466047,0.006555005098599225,0.007258605685710614,0.0017106366970535876,0.007134239923544314,103.0,0.8618719577789307,0.7836347402071681,0.4043802306699421,0.917192830592189,0.3653320372104645,0.04739294261418606,0.24922624252265757,0.6444573151724281
147,4.86693159136273,154.09634399414062,1.0001555704858514,120.59625244140625,0.9959096867819317,109.30740356445312,1.0043306726225099,123.43990325927734,1.0,71357.0,0.018265977009276457,0.0058839396177132,0.006476451250418451,0.0018016117097302863,0.006393676811603328,103.0,0.8484205007553101,0.7747709871958369,0.3751699202601006,0.9103399885182114,0.36384645104408264,0.04951202398418065,0.23561808932550415,0.6362610166556268
148,4.900266739248775,154.39999389648438,1.0021263968755945,120.52879333496094,0.9953525950298212,109.07120513916016,1.002160450701476,122.90129852294922,1.0,70322.0,0.017499134710343034,0.005018252884603488,0.005686710225448255,0.001680704677615385,0.005629403980934888,103.0,0.8397013545036316,0.769555283789805,0.36448053240806577,0.8972275029664315,0.3626512885093689,0.05144366331959631,0.22368533318165013,0.6303424758890636
149,4.933601887134821,154.705078125,1.0041065326965253,120.44831085205078,0.9946879534449973,108.84663391113281,1.000097060984572,122.0136489868164,1.0,69697.0,0.017325448061105697,0.0043787917515848715,0.005267712676458309,0.0014122004837993259,0.00521232866300922,103.0,0.8283203840255737,0.7622901033521289,0.3414207211214256,0.8871704789908479,0.3608686029911041,0.05753490917885465,0.21335208115126905,0.6230029474384563
150,4.966937035020868,154.90374755859375,1.005395987952528,120.53941345214844,0.9954402982325964,108.55685424804688,0.9974345276661604,119.87657928466797,1.0,69309.0,0.010480610143394742,0.004182636387984627,0.005312147352745046,0.0010791264554373793,0.0052406664327303955,103.0,0.8355408310890198,0.7577082341398663,0.32813920270094793,0.8822316416542559,0.35888442397117615,0.05447995824900396,0.21779278304404912,0.6252686178891973
151,5.000272182906913,152.97872924804688,0.9929017409335726,120.91036224365234,0.9985036728174599,110.11089324951172,1.011713240587033,124.67207336425781,1.0,71842.0,0.0180458793431168,0.004388504930749928,0.005640184888440045,0.0007669258773430124,0.005556235822344926,103.0,0.9419702887535095,0.9006477176767537,0.7686729211324852,0.915662957723142,0.3758781850337982,0.06017155456990275,0.3135770162300604,0.6987100702385558
152,5.03360733079296,153.19161987304688,0.9942834982094367,120.82159423828125,0.9977706076132294,109.98676300048828,1.0105727156781141,124.77436828613281,1.0,71494.0,0.019455791368137076,0.004757413004857284,0.0059298533289816055,0.0005386100000700156,0.005858971510007965,103.0,0.9453710913658142,0.8474230937794314,0.6224158670657678,0.9112275201060427,0.3761068880558014,0.061420614588511196,0.3124457996475229,0.6884892531926826
153,5.066942478679006,153.0947723388672,0.9936549135312609,120.89295959472656,0.9983599580146365,110.01226043701172,1.0108069894485878,124.95278930664062,1.0,71470.0,0.01736973919337953,0.00498920726492598,0.005888597326169197,0.000425875603589143,0.00586718887249287,103.0,0.9453868269920349,0.8474464810409962,0.6225689100321813,0.9109216278565875,0.37578555941581726,0.06173925234836029,0.3108297187631174,0.6881236663330939
154,5.100277626565052,153.025146484375,0.9932030099726479,120.94750213623047,0.9988103820064752,110.02734375,1.0109455768944964,125.30921936035156,1.0,71599.0,0.015719674404393535,0.004859069296629815,0.005378887501379261,0.00042106297374117763,0.005431681174553416,103.0,0.9464754462242126,0.7568308682151055,0.3518624561795556,0.9125657986974088,0.3745589554309845,0.05741852432480659,0.3116244640288272,0.6711229641128706
155,5.133612774451098,153.0195770263672,0.9931668616494189,120.98687744140625,0.999135551711592,109.99356842041016,1.010635244763471,125.56263732910156,1.0,71846.0,0.013951111404165661,0.004287553690194347,0.004444703219993441,0.0004818442045015913,0.0045686235588532475,103.0,0.9474218487739563,0.7550687117816812,0.34592044094312835,0.9157139397647179,0.3738274872303009,0.05356938018582954,0.31137432842468615,0.6715729694050299
156,5.166947922337144,152.94554138183594,0.9926863365417288,121.02416229248047,0.9994434579989211,110.03028869628906,1.0109726354448862,126.0043716430664,1.0,71682.0,0.013167350117149479,0.0033267116995457937,0.0032441097730346578,0.0005435084700613936,0.0034086401216679415,103.0,0.9494141936302185,0.7510718636942794,0.3334449373622388,0.9136236760601079,0.37277182936668396,0.05363310773779936,0.31228202338104405,0.6714430285845714
157,5.200283070223191,152.93844604492188,0.9926402845683001,121.02545166015625,0.999454105873396,110.0361099243164,1.0110261216468226,126.21227264404297,1.0,71315.0,0.013205201755716656,0.00209529852955081,0.0019418584126886143,0.000535268090428244,0.0021065956359513876,103.0,0.9495390057563782,0.7515997102058941,0.333912921545257,0.9089460737455232,0.37335988879203796,0.059776443747689874,0.31308981280235576,0.6707584250411142
158,5.233618218109236,152.957275390625,0.9927624956117647,121.06796264648438,0.9998051707051941,109.97476959228516,1.0104625186801535,126.76932525634766,1.0,70995.0,0.010972530484479714,0.0007142914232924377,0.000628702644976001,0.0003975650608358392,0.0007668214444719446,103.0,0.9485705494880676,0.7440195318919173,0.32916402563560815,0.9064271487666615,0.37087497115135193,0.05853888974005413,0.30624691879709837,0.6678297051514115
159,5.266953365995282,152.94383239746094,0.9926752444535052,121.08686065673828,0.9999612345222013,109.96929168701172,1.0104121869724334,127.39264678955078,1.0,70331.0,0.01026581182360714,-0.0007233186491867606,-0.0006919556318815012,9.770610193309044e-05,-0.0005787463173843719,103.0,0.9446142315864563,0.745569758238425,0.33848516301488674,0.9036838115307028,0.36938804388046265,0.05907975381294409,0.30127539776201107,0.6660698284866302
160,5.300288513881329,153.18594360351562,0.9942466566306938,121.07478332519531,0.9998614973311144,109.7392807006836,1.0082988160471669,127.59144592285156,1.0,70564.0,0.007699191460330046,-0.0021464163161965715,-0.002054768644072102,-0.00036235519526762626,-0.0019405818389870097,103.0,0.9317684173583984,0.7483183115091737,0.35403321807153787,0.9097754054820659,0.368411660194397,0.04935406513498879,0.2949379286888498,0.6636967019576061
161,5.3336236617673745,153.5343780517578,0.9965081551537985,121.02191162109375,0.9994248714724709,109.44374084472656,1.0055833573257906,128.75987243652344,1.0,69564.0,0.005667743059694752,-0.00348459018680563,-0.0034616208814981318,-0.0009433008104678558,-0.003315237960452019,103.0,0.9592987298965454,0.7592816207616967,0.3756540739462941,0.8956469118953507,0.36757558584213257,0.05213148102846696,0.2828618250819389,0.6699123346783088
162,5.366958809653421,153.437255859375,0.9958777878185867,121.04519653320312,0.9996171632647624,109.51756286621094,1.0062616436821952,129.32273864746094,1.0,70383.0,0.005840511874074861,-0.004657032629765537,-0.004838383057028327,-0.0015743735860933006,-0.004644862597745013,103.0,0.9651447534561157,0.7640576086081392,0.38963954363979936,0.9065418153247723,0.3625180721282959,0.040469351743324875,0.26760723470156145,0.671144060747037
163,5.400293957539467,153.36489868164062,0.9954081567261163,121.09359741210938,1.0000168680912032,109.54151153564453,1.0064816871787592,129.94569396972656,1.0,70056.0,0.004513877005019928,-0.005583938444141855,-0.006046434928142995,-0.002164718786324689,-0.005816509328836765,103.0,0.9475803375244141,0.7683377107837539,0.39621160214685397,0.9035170305789494,0.35922959446907043,0.04179939899660807,0.25832191389745346,0.6655391054778877
164,5.433629105425513,153.52174377441406,0.9964261529301449,121.18954467773438,1.000809221164551,109.28871154785156,1.004158927937393,130.1890869140625,1.0,70343.0,-0.00201587731735009,-0.006213315624674171,-0.006939859200503736,-0.0026188966633369907,-0.0067032309570147965,103.0,0.9217298626899719,0.7720218548161627,0.40278350368906646,0.9056300130032315,0.35712212324142456,0.038404593616829526,0.2509418136843751,0.6588804643939078
165,5.466964253311559,153.4333038330078,0.9958521373645695,121.09468078613281,1.0000258148259689,109.47203063964844,1.0058432876492247,130.43023681640625,1.0,69970.0,0.003588186760531853,-0.006541284084343063,-0.007430936435366515,-0.002850025454144781,-0.0072154494459011455,103.0,0.894317090511322,0.7757896241246248,0.4172645419465485,0.8971893111760784,0.3572767674922943,0.04640457506283018,0.24490495926825784,0.6502934572963542
166,5.500299401197605,153.3961181640625,0.9956107854092024,121.1443862915039,1.0004362935372333,109.45951843261719,1.0057283238600037,131.0175323486328,1.0,70476.0,0.0017445209047549648,-0.006604984511727096,-0.007522928641556483,-0.002798412718596886,-0.007339932532633909,103.0,0.8645005226135254,0.7776548044724446,0.4208382995629718,0.9034805461188385,0.3559474050998688,0.0406384206140632,0.240379703728929,0.643229884995406
167,5.533634549083651,153.2040557861328,0.9943642129585644,121.12969207763672,1.0003149455713247,109.6662826538086,1.007628100476882,131.8490753173828,1.0,70042.0,0.004930832017785214,-0.0064475365721209064,-0.007291426347274495,-0.0024358795118003215,-0.007129385565216854,103.0,0.8387844562530518,0.7795751120756118,0.42698666514377087,0.8984811945199856,0.35340824723243713,0.046898250295038225,0.23628679934896205,0.6353647763009715
168,5.566969696969697,153.22935485839844,0.9945284154788757,121.19647979736328,1.0008664928680873,109.57415008544922,1.0067815744289346,132.06387329101562,1.0,70410.0,0.0014743736090977455,-0.006079681052519664,-0.006828638150647031,-0.0017767291316254283,-0.0066668692607963894,103.0,0.8138758540153503,0.7833262320693084,0.4376509018605312,0.9030975437696402,0.35147103667259216,0.04207015968703905,0.22992472660133503,0.62938792968804
169,5.600304844855743,153.2422637939453,0.9946122003595652,121.21348571777344,1.0010069314018415,109.54425811767578,1.0065069231324906,132.49481201171875,1.0,70516.0,0.0005155616538408125,-0.005468962684721131,-0.006187274910201257,-0.0008732234277560891,-0.006011804677736579,103.0,0.7883569002151489,0.786757615292983,0.4469198479777639,0.9011744559035898,0.3501797020435333,0.04531687305908063,0.2244171535538034,0.6220734791336917
170,5.63363999274179,153.13778686523438,0.9939340974303909,121.1810531616211,1.0007390964054355,109.68113708496094,1.0077645849266463,132.6830596923828,1.0,71034.0,0.003397571340167216,-0.004566946723990034,-0.005358943202838672,0.00018749661888293903,-0.005174892136740459,103.0,0.7652580738067627,0.78820940207037,0.4531914294563167,0.9062308634415187,0.3490315079689026,0.04107981220657277,0.2193034321592477,0.6162443153445626
171,5.6669751406278355,153.31263732910156,0.9950689567067761,121.09294128417969,1.000011449646204,109.59442901611328,1.0069678998873184,133.3260498046875,1.0,70956.0,0.005270736118014707,-0.003356764058174084,-0.00429958484497546,0.001294156219041576,-0.004129438081788028,103.0,0.9620834589004517,0.7923877708251122,0.46086307007159366,0.9058366950926824,0.346569299697876,0.043877342593065416,0.38695811488809967,0.6993696670528649
172,5.700310288513881,153.23696899414062,0.9945778346933722,121.116455078125,1.0002056315937278,109.64655303955078,1.0074468222092443,133.27499389648438,1.0,70888.0,0.005154258616079932,-0.0018915560777136738,-0.0029866638783965917,0.002324554863337675,-0.0028587030057217904,103.0,0.9623216986656189,0.7939519617800851,0.46706071549486516,0.9027098614506928,0.3441344201564789,0.045907192339038304,0.36822875521950116,0.6956714172920759
173,5.733645436399928,153.30528259277344,0.9950212211128134,120.99961853027344,0.9992407703528524,109.69506072998047,1.0078925171920905,133.1845245361328,1.0,70651.0,0.009755847461621558,-0.00030427641339681605,-0.001475102437877934,0.0031613280644533135,-0.0014082812680225318,103.0,0.9506208300590515,0.7975872009360566,0.4772331601817384,0.8952003243708978,0.34457656741142273,0.05121512379311219,0.35056828636537346,0.689091885168151
174,5.766980584285974,153.381591796875,0.9955165026593011,121.01078033447266,0.9993329469230104,109.6076431274414,1.0070893128647154,132.8214569091797,1.0,70941.0,0.008249623730983202,0.0012129064615022623,8.08282412314767e-05,0.0037046784497974166,8.486715623755897e-05,103.0,0.9310813546180725,0.8004351033487921,0.48440253168125624,0.8983853606027987,0.34444451332092285,0.04605838029506743,0.3354618626746169,0.6825803910119892
175,5.80031573217202,153.38626098632812,0.9955468078289123,120.98309326171875,0.9991043011450859,109.63066101074219,1.0073008041769593,132.62692260742188,1.0,71219.0,0.009494138016223508,0.0024500268779553487,0.0014559818645163108,0.003887956504270088,0.001414613138333104,103.0,0.9120675325393677,0.8018927533382946,0.4891250930229293,0.8983563959282012,0.34450581669807434,0.04652042837140659,0.3251098723655204,0.6759741397361799
176,5.833650880058066,153.45291137695312,0.9959793992696357,120.9640121459961,0.9989467252038929,109.58308410644531,1.0068636613784332,132.3352813720703,1.0,71333.0,0.009530949207340489,0.0032300838824878904,0.002425151171553937,0.0036834261094394593,0.0023658022825188453,103.0,0.8954522609710693,0.804157963354969,0.49465184416749614,0.8962783334170981,0.34343403577804565,0.04711765592802935,0.3186042925434231,0.670876691473961
177,5.866986027944112,153.4203338623047,0.9957679563378719,120.8832778930664,0.9982800044483136,109.69641876220703,1.0079049949692132,132.390625,1.0,70809.0,0.013747789442666136,0.003458488904088899,0.0028469888375756464,0.0031089643847003533,0.0027968104233739026,103.0,0.8821970820426941,0.8058438899010013,0.50095326865229,0.8920706510784117,0.34432512521743774,0.049763152590203585,0.3137736728381985,0.6665106786440809
178,5.900321175830158,153.38441467285156,0.9955348244121707,120.95832824707031,0.9988997863489594,109.65725708007812,1.0075451723289255,132.15823364257812,1.0,71587.0,0.010697844296547465,0.0031576972158379765,0.002723276921217785,0.0022233126457397298,0.0026953778403119378,103.0,0.8652858734130859,0.8076652651086557,0.5055945911967257,0.899628019202252,0.34408777952194214,0.042928594767134995,0.30811460181317835,0.6626088665748967
179,5.933656323716204,153.3732147216797,0.9954621316197048,120.97265625,0.9990181100664965,109.65414428710938,1.0075165715813632,132.24838256835938,1.0,71459.0,0.01017717835414117,0.0024705849308232835,0.002204719504628578,0.001121954312810505,0.0021915755070313885,103.0,0.8463081121444702,0.809102655602047,0.5092850445710128,0.8989344973771275,0.34276413917541504,0.04599147094712742,0.3019213814914846,0.6564232001032835
180,5.966991471602251,153.40567016601562,0.9956727822594527,120.98552703857422,0.9991243997957219,109.60881805419922,1.0071001082449227,132.5043182373047,1.0,70963.0,0.009158460777986654,0.0016230570586663908,0.0015381103020288363,-7.744563394924694e-05,0.0015113503398232475,103.0,0.8288018703460693,0.8128367365152732,0.5197920042839226,0.8954886743643132,0.3425943851470947,0.04528992365448924,0.29546383326522274,0.6516141937578983
181,6.0003266194882965,153.6448516845703,0.9972251794282578,120.93346405029297,0.9986944524855655,109.42169952392578,1.0053808387970957,132.67030334472656,1.0,71814.0,0.008505445929846922,0.0008547926384714803,0.0009773689388267884,-0.0012477217741350601,0.0009002605078602122,103.0,0.95977783203125,0.8145997530657904,0.5265964853649706,0.9042420579458316,0.3402819037437439,0.04789785819514222,0.4658980143147576,0.7183803541726993
182,6.033661767374342,153.6333465576172,0.9971505059057519,120.97635650634766,0.9990486675760841,109.3902816772461,1.0050921675263564,132.8901824951172,1.0,71987.0,0.006647679698388975,0.0003454008665665498,0.0006982144179483771,-0.002268824882279875,0.0005437809219486027,103.0,0.9601902961730957,0.8167539509448466,0.5311514579021213,0.9084679454820798,0.33800217509269714,0.042453306410903585,0.44430244349674247,0.7154663239058472
183,6.066996915260389,153.57656860351562,0.9967819910818206,120.97985076904297,0.9990775239459627,109.44356536865234,1.0055817450287468,133.25048828125,1.0,71719.0,0.007226085232065471,0.0001682682341634323,0.0007535811663336541,-0.0030409138967820385,0.0005218342809537723,103.0,0.9488511681556702,0.8207076692833605,0.5373192598892902,0.9072038454240718,0.3357611894607544,0.04104737208272721,0.42497803929223776,0.7097823542208008
184,6.100332063146435,153.6275177001953,0.9971126739619891,120.97195434570312,0.9990123135904511,109.40052032470703,1.0051862415538777,133.346435546875,1.0,71567.0,0.0069420401198350135,0.000291806646734446,0.0010854767397071633,-0.003495953551384978,0.0008071473297107665,103.0,0.9326980113983154,0.8233683122109352,0.5459080302373999,0.9035552862156907,0.33435365557670593,0.03923945155670025,0.4103707015803373,0.7036439933587613
185,6.13366721103248,153.72593688964844,0.9977514593998706,120.88388061523438,0.9982849818570917,109.39016723632812,1.0050911160282843,133.35443115234375,1.0,70780.0,0.009803864696617315,0.0006236080452152072,0.001580275603247423,-0.003601921128088431,0.0013051675739691585,103.0,0.9120795726776123,0.8299378355467647,0.5591833851370444,0.897346501515017,0.3341274559497833,0.046236545507562406,0.3998869737213902,0.696587007741824
186,6.167002358918527,153.71849060058594,0.997703129586896,120.96188354492188,0.9989291467602333,109.31963348388672,1.0044430427164863,133.53366088867188,1.0,70911.0,0.006247164023720275,0.0010702925413069693,0.0021339489139006484,-0.003365984822546099,0.0019047900498794608,103.0,0.8920971155166626,0.8327386912232705,0.565807843634979,0.9025085591375953,0.33230721950531006,0.04057476677145512,0.39123690259621213,0.6913274349596293
187,6.200337506804573,153.6746368408203,0.9974184986801563,120.95093536376953,0.9988387343349586,109.37439727783203,1.004946219593943,133.62290954589844,1.0,71046.0,0.007334851933822439,0.00157898133646181,0.002692471257057118,-0.002827678672586316,0.002522502996912757,103.0,0.8689083456993103,0.8362234796235303,0.5775131604875714,0.9031347723285791,0.3312433063983917,0.043157145399537286,0.3809644455704755,0.6837595281997028
188,6.233672654690619,153.65394592285156,0.9972842051834482,120.95622253417969,0.9988823969208229,109.38981628417969,1.0050878914341965,133.79373168945312,1.0,71220.0,0.007361444564129682,0.002140278578178273,0.0032505128874925062,-0.0020545976606339794,0.003113628263247402,103.0,0.846365749835968,0.8396658242066835,0.5884723392305532,0.9078972528523169,0.33026742935180664,0.04318949582510039,0.37117382757652345,0.6768490484836174
189,6.267007802576665,153.71739196777344,0.9976959989587523,120.8910903930664,0.9983445217469067,109.39149475097656,1.0051033134059213,133.94638061523438,1.0,71382.0,0.009600433303336986,0.0027571967214514077,0.00381709776190715,-0.0011301620123786622,0.003663170696075419,103.0,0.8250734806060791,0.8448068140427559,0.605166568602729,0.9083875237016582,0.3299660086631775,0.0438910169124852,0.36199602140595666,0.6706063745352647
190,6.300342950462711,153.79153442382812,0.9981772173219564,120.95266723632812,0.998853036509549,109.25577545166016,1.00385630679223,133.8087921142578,1.0,71770.0,0.005755919191046177,0.0034034267700837396,0.004374854866363939,-0.00014667076864094338,0.0041582777356811195,103.0,0.8003330826759338,0.8496307649435697,0.6165528772467604,0.9130578596509084,0.3288089334964752,0.04418350211185181,0.3503274348613627,0.6630055502920736
191,6.3336780983487575,153.84854125976562,0.9985472176934177,120.91178131103516,0.9985153917798997,109.23966217041016,1.003708255863672,134.73265075683594,1.0,71309.0,0.006941118372302657,0.003999033873483652,0.004860262311067513,0.0008063240166444936,0.004570550675081666,103.0,0.9619569182395935,0.8557732310554536,0.6299625573209553,0.9111108271791072,0.32632726430892944,0.04814351059208341,0.3706684990674389,0.7080746138897436
192,6.367013246234803,153.8992462158203,0.9988763159895542,120.8582992553711,0.9980737255073037,109.24246978759766,1.0037340526163752,134.5911102294922,1.0,70965.0,0.008799462121563073,0.0044218502545503935,0.005176945490897348,0.0016466375450829365,0.004848468822434038,103.0,0.9644447565078735,0.8618567838605885,0.643190305079969,0.9069820942448525,0.32456153631210327,0.05217080122183454,0.3595716198125837,0.7070495416661093
193,6.40034839412085,154.01564025878906,0.9996317664267884,120.80921173095703,0.9976683502151662,109.17513275146484,1.0031153511507258,134.21197509765625,1.0,70444.0,0.009598594726890786,0.004551860616578591,0.005232581339010851,0.0023066943527710244,0.004929637811391137,103.0,0.9634225368499756,0.8614454980788522,0.6482028277780932,0.9003233516097287,0.32396623492240906,0.06156461280881357,0.35758900687070583,0.7048121971529953
194,6.433683542006896,154.44850158691406,1.0024412339154434,120.7974624633789,0.9975713222465787,108.75405883789062,0.999246469144079,133.8141632080078,1.0,69829.0,0.00454318978570295,0.004323380353055044,0.004975507070708181,0.0027353277765169385,0.004756048598765511,103.0,0.952836811542511,0.8697150658513416,0.6646379011585445,0.89031262749898,0.3230220079421997,0.06948694410444717,0.3452147388620774,0.7000772527715999
195,6.467018689892941,154.39930725097656,1.0021219402330046,120.76414489746094,0.9972961786499416,108.83657836914062,1.0000046693539664,133.839111328125,1.0,69361.0,0.006750532779612628,0.003752066756218933,0.004408864955817926,0.00290269329891382,0.004292517781001074,103.0,0.9514884948730469,0.8680190116443919,0.6633410706304695,0.8843456752345982,0.32331761717796326,0.07754487964096288,0.34497772523464193,0.6980642903515145
196,6.500353837778988,154.4855194091797,1.0026814964692883,120.79025268554688,0.9975117823567637,108.7242431640625,0.9989725188463497,133.69081115722656,1.0,69575.0,0.004413344377672879,0.0029193115557337597,0.0035766563189734025,0.0027988379049614905,0.003533609738480796,103.0,0.9521521329879761,0.869157982991975,0.6656845131153432,0.8870741534067728,0.3225964903831482,0.07496940024479805,0.3447646424721523,0.6988274543006519
197,6.533688985665034,154.68568420410156,1.003980657302487,120.85759735107422,0.9980679290312582,108.45671081542969,0.9965143967531629,133.42236328125,1.0,69256.0,-0.0013365004498198663,0.0019251318244111677,0.0025356313323412604,0.002437087638655886,0.0025083167103269605,103.0,0.9530810117721558,0.8702061915213122,0.6659639598013168,0.8830069359445124,0.32230591773986816,0.08089810281517748,0.34425898117130643,0.6982195910311343
198,6.56702413355108,154.70437622070312,1.0041019770174333,120.83189392089844,0.9978556645986795,108.46372985839844,0.9965788886349211,133.5325927734375,1.0,69783.0,-0.0003667603034442357,0.000842129292051165,0.0013355367373086783,0.0018534704692810748,0.0012782911781764345,103.0,0.9537038207054138,0.8685830837501015,0.6611925540604445,0.8897261321909424,0.3222070336341858,0.07029018767849857,0.34686098333404985,0.700268338564624
199,6.600359281437126,154.5894775390625,1.003356232157395,120.84342193603516,0.9979508654172091,108.56709289550781,0.9975286016936815,133.59593200683594,1.0,70258.0,0.0005882926674056765,-0.00029792967236786516,2.1707223375535432e-05,0.0011043857201176186,-6.687594163838985e-05,103.0,0.9491360187530518,0.9631453594845665,0.9271826695892282,0.8957823337413301,0.3223738372325897,0.0689514483884129,0.3458538529420137,0.7180516154314329
200,6.633694429323172,154.59112548828125,1.0033669280996105,120.88431549072266,0.9982885731520329,108.52456665039062,0.9971378650100728,133.38150024414062,1.0,70431.0,-0.0013453903342371953,-0.0014783966239686288,-0.001345585173626725,0.00026469147850403756,-0.001418880407932226,103.0,0.9551109671592712,0.9619817031326168,0.9243514929505473,0.8973930992304164,0.32312580943107605,0.06680342490189083,0.3514929505473442,0.7207841245415074
201,6.6670295772092185,154.53065490722656,1.002974446442196,120.97305297851562,0.9990213863355657,108.49626922607422,0.9968778645867673,133.2386474609375,1.0,69956.0,-0.0047191217735269575,-0.0026580424582208556,-0.002676297859191987,-0.0005789505204303082,-0.0026694292993889347,103.0,0.9487528204917908,0.9572111994205882,0.9183915604094002,0.8913409102492228,0.3256434202194214,0.07430813923857092,0.3333238035336497,0.7134059034356239
202,6.700364725095264,154.4363250732422,1.0023622027868495,121.05903625488281,0.9997314546511374,108.50463104248047,0.9969546940459053,132.429443359375,1.0,71739.0,-0.007523667829057001,-0.0037536789930185358,-0.0038600535949987577,-0.001336586037343987,-0.0037332624133318147,103.0,0.9458674788475037,0.9541021387715655,0.9124186286399308,0.9081345890931186,0.32995957136154175,0.06178793862980404,0.318432094118959,0.7110876461092122
203,6.73369987298131,154.43472290039062,1.00235180395414,121.07235717773438,0.9998414616856528,108.49295043945312,0.9968473711426752,131.95155334472656,1.0,72170.0,-0.00812111419755479,-0.004661157362346219,-0.004800440717382854,-0.001925142949006053,-0.004567186628196498,103.0,0.9377955198287964,0.9544824719412498,0.9122627130386587,0.9114675423086638,0.33016666769981384,0.05974993685274059,0.30390744076486076,0.7065668726019827
204,6.767035020867357,154.37428283691406,1.0019595203697291,121.12197875976562,1.0002512473399987,108.50374603271484,0.996946562460814,131.80569458007812,1.0,72390.0,-0.009659855442364251,-0.005297634947733011,-0.005452370002256319,-0.002280132865669846,-0.005173621545085235,103.0,0.9194912910461426,0.9531841414560023,0.9090067688907307,0.9133001942923469,0.3310750424861908,0.05856526456561782,0.2926232905097389,0.699663866824185
205,6.800370168753402,154.4832763671875,1.0026669381034947,121.11339569091797,1.0001803665187903,108.40332794189453,0.9960239079524434,131.59718322753906,1.0,71545.0,-0.010664705437351207,-0.005630846246425973,-0.00583334652375152,-0.0023651301732368637,-0.005580885074860208,103.0,0.9054749011993408,0.9546159759591865,0.9135369347962821,0.9066198646627974,0.32952332496643066,0.06646475910484832,0.2811097910406038,0.6928795172430176
206,6.833705316639449,154.6541748046875,1.0037761469258628,120.9824447631836,0.9990989457052613,108.36337280273438,0.9956567949255222,131.21185302734375,1.0,71436.0,-0.006731091764264341,-0.005672688016068599,-0.005994922814944706,-0.002177763269690848,-0.005806519859435599,103.0,0.9001962542533875,0.8383634768650726,0.5806176157679601,0.9045394112060778,0.3321714997291565,0.05385248496359608,0.27862702278962986,0.669830765900112
207,6.867040464525495,154.3407745361328,1.0017420362113434,121.14775085449219,1.000464078819147,108.51146697998047,0.997017503530748,131.0084991455078,1.0,72610.0,-0.010416651898782492,-0.005444031034246403,-0.005969480466596502,-0.0017532076379698843,-0.005827386876434034,103.0,0.867039144039154,0.9525180186383877,0.9077537529265941,0.9209441548393643,0.3333103358745575,0.055198305493195335,0.26610659688748106,0.6816529802360511
208,6.9003756124115405,154.3720245361328,1.0019448629674337,121.08293151855469,0.9999287868573815,108.54505157470703,0.9973260831649866,130.4240264892578,1.0,72786.0,-0.007774380030734718,-0.004942089378988376,-0.005729617369397316,-0.0011561628158837619,-0.005571826179131167,103.0,0.850626528263092,0.9517031663598311,0.9080455032561207,0.9234223947628835,0.33568426966667175,0.05388089619649337,0.2580303904597038,0.6759824000382411
209,6.933710760297587,154.44076538085938,1.0023910224089307,121.0783920288086,0.999891298778609,108.4808349609375,0.9967360525467708,130.12135314941406,1.0,72568.0,-0.008447087592885205,-0.0041421161584315105,-0.0051954064865645105,-0.0004751601426042123,-0.00495817591674362,103.0,0.8321025371551514,0.953404622790578,0.9114347921949069,0.920761803255808,0.3359243869781494,0.057021049826805226,0.24585216624407452,0.6687536241234295
210,6.967045908183633,154.22747802734375,1.0010066901840147,121.11305236816406,1.000177531285942,108.65946197509766,0.9983773008376448,129.6473388671875,1.0,72984.0,-0.007301290141452921,-0.003040660035666527,-0.004296626943459547,0.0001950042825805718,-0.003955878676670342,103.0,0.8117914795875549,0.9497789469838138,0.9037597281595966,0.9249486731047069,0.33902686834335327,0.051453628367931464,0.2345445577112792,0.6615799902970383
211,7.0003810560696795,154.5297088623047,1.0029683061790722,121.00755310058594,0.9993062957342361,108.46273040771484,0.9965697055517576,130.95736694335938,1.0,70975.0,-0.00626481557222619,-0.0017150942597813712,-0.003058732507325388,0.0007662710274240063,-0.0026496403258793435,103.0,0.9632465243339539,0.8180439121756486,0.5322155688622755,0.8993854146866882,0.33220458030700684,0.04291959703478426,0.2705600563578725,0.6816652892646273
212,7.033716203955725,154.4886016845703,1.0027015018426917,120.9756088256836,0.9990424930689922,108.53580474853516,0.9972411221207573,129.9424591064453,1.0,71453.0,-0.0042264903474629745,-0.0003556108121727216,-0.0016573782758384917,0.0011725852609879282,-0.0012566647075148425,103.0,0.949478030204773,0.8110879412574232,0.5242607028396289,0.9049723896853944,0.3374258279800415,0.04299863214955165,0.25525870152407876,0.6737590549635655
213,7.067051351841771,154.54684448242188,1.0030795241708148,120.92550659179688,0.9986287380886586,108.52764129638672,0.9971661152582777,129.12742614746094,1.0,71513.0,-0.0026254885373006576,0.0007654971752637904,-0.0003946371986402187,0.0013788657456655729,-7.86627539716646e-05,103.0,0.9283402562141418,0.813274043414018,0.5189965460825304,0.9011668934926156,0.34154176712036133,0.04875497756943394,0.23640456979849817,0.6642199902849292
214,7.100386499727818,154.2989959716797,1.0014708742688754,120.93387603759766,0.9986978547649836,108.76713562011719,0.9993666203237893,128.96981811523438,1.0,71655.0,0.00020231112637708604,0.0013891613760807033,0.00041003077011192364,0.0013852364937707636,0.0006076810774116924,103.0,0.9096890091896057,0.8091689344777057,0.5070965040820599,0.901865277148467,0.3447888195514679,0.04670744600513518,0.2222454818226223,0.6562319441966454
215,7.133721647613863,154.47579956054688,1.0026184102175162,120.89094543457031,0.998343324648593,108.63322448730469,0.9981362273796378,128.3155059814453,1.0,71581.0,-7.097394141614144e-05,0.001390912395958603,0.0005699056554938661,0.0012228283597096044,0.0006745903800705304,103.0,0.8913607001304626,0.809525805264898,0.5044914153197078,0.9049888742793567,0.34527871012687683,0.042960453120258923,0.21015353236193962,0.6499023700587417
216,7.167056795499909,154.66722106933594,1.0038608231350703,120.85871124267578,0.9980771277867216,108.47406768798828,0.9966738739607713,127.31123352050781,1.0,71350.0,-0.0010343759708318356,0.0008659507457393213,0.0001454915560989941,0.000945470780471315,0.00022290755142573298,103.0,0.8770748376846313,0.8091380518570427,0.5004484933426769,0.8994755685542837,0.3438403606414795,0.04361857697544249,0.2004625087596356,0.6442098492284227
217,7.200391943385956,154.8955078125,1.0053425082414496,120.75992584228516,0.9972613367884943,108.34455108642578,0.9954838585425902,126.50809478759766,1.0,70465.0,0.0006457276891732033,0.00012447091566378406,-0.0005457946092019528,0.0006168017345860788,-0.0004322085170458068,103.0,0.8654908537864685,0.8103313701837792,0.4998651812956787,0.8916685647761496,0.34316486120224,0.05093260445929188,0.1900517987653445,0.6383001305229552
218,7.2337270912720015,155.038818359375,1.0062726590682067,120.70207977294922,0.9967836315561371,108.25910949707031,0.9946988100819275,125.6184310913086,1.0,70012.0,0.0015077510125589555,-0.00041681652469125353,-0.00104604054967251,0.0002969758409220051,-0.0008748587747844296,103.0,0.8563573360443115,0.8102991868060713,0.49577215334514085,0.8852529492837002,0.34283363819122314,0.05057721243693654,0.18248300291378622,0.6345534179651395
219,7.267062239158048,155.0955047607422,1.0066405796731261,120.74838256835938,0.9971660099596158,108.15609741210938,0.9937523216172549,124.96236419677734,1.0,69943.0,-0.001394196792943725,-0.00040934017703888524,-0.0009555203372894661,3.1849204680331446e-05,-0.000759692377667434,103.0,0.8456803560256958,0.8112701294863913,0.4930014440329983,0.8844364077792671,0.34183523058891296,0.050036670797400165,0.17464220865561958,0.6305966893072421
220,7.300397387044094,155.2922821044922,1.0079177544028812,120.74652099609375,0.9971506366970604,107.96118927001953,0.9919614802006507,124.37762451171875,1.0,69623.0,-0.00385251261406383,0.0002643872556935518,-0.00012167843024354755,-0.00015377225896800336,3.2623324593953945e-05,103.0,0.8342254757881165,0.8111495722199082,0.4909584476394295,0.883462128998693,0.33862394094467163,0.04762267311279455,0.1654769257285667,0.626262040838677
221,7.33373253493014,154.01351928710938,0.9996180003530107,120.85984802246094,0.9980865155577083,109.12661743164062,1.0026695860680082,128.14601135253906,1.0,71374.0,0.007419535572101288,0.0014238245174640783,0.0012767515367258953,-0.00025514635638037013,0.0013335196382390742,103.0,0.9568597078323364,0.7984980525121194,0.4735618012161291,0.9038459103169678,0.3474178612232208,0.052350982055795456,0.27711771793650347,0.6759619239188814
222,7.367067682816186,153.80445861816406,0.9982611012391479,120.92874908447266,0.9986555152877818,109.26677703857422,1.0039573908068986,127.83763122558594,1.0,72045.0,0.006904013636876094,0.0026630780218513095,0.0027981726887048764,-0.00028755895431529957,0.0027437700957597504,103.0,0.9440634846687317,0.7993383764776644,0.4694704698452356,0.9147177572941266,0.3503393530845642,0.047751453746730656,0.2669720313692831,0.6716377201370956
223,7.400402830702232,153.6535186767578,0.9972814321613922,120.92113494873047,0.9985926361237232,109.42538452148438,1.0054146970350188,127.74706268310547,1.0,71718.0,0.009225728432157632,0.0035330278728670983,0.003930999999123125,-0.00027306232104740553,0.003802132232612685,103.0,0.926424503326416,0.7995854132388893,0.4677347388382275,0.9110518292682926,0.3525232672691345,0.056465955284552845,0.25198694888312556,0.6628860454104785
224,7.433737978588279,153.56692504882812,0.9967194000125584,120.97429656982422,0.9990316561789941,109.45877838134766,1.0057215241724704,127.43634796142578,1.0,72208.0,0.00785976969706259,0.00374105039771156,0.004319516666947548,-0.00023780038309693767,0.004175343012072215,103.0,0.909110426902771,0.8130447226530763,0.50702138267228,0.9164498483329314,0.353218138217926,0.050970288484725415,0.23551407046310657,0.6588341191913732
225,7.467073126474324,153.5775146484375,0.9967881313449445,120.96031188964844,0.9989161676943054,109.4621810913086,1.005752788715149,127.25466918945312,1.0,71226.0,0.008384762905948473,0.0032695588337244004,0.003915304638811325,-0.00020117567316117673,0.0038008475010243123,103.0,0.8957748413085938,0.8510281825924989,0.6168955156824755,0.9080663462396573,0.352901816368103,0.059882453433966115,0.2223626203914301,0.6590406783744996
226,7.50040827436037,153.56690979003906,0.9967193009760564,120.9598388671875,0.9989122613734921,109.47322082519531,1.005854223229175,126.9435806274414,1.0,71685.0,0.008549799247074663,0.002363711935244723,0.0029858496338081423,-0.0001744338551208551,0.0029055568764393106,103.0,0.8817131519317627,0.8132524237985632,0.503606054265188,0.9126150555704082,0.354338675737381,0.053100612356618164,0.21227592941340587,0.6470378606482756
227,7.533743422246417,153.52786254882812,0.9964658665674457,121.01924896240234,0.9994028826666027,109.45291137695312,1.0056676173713053,126.35909271240234,1.0,71851.0,0.006275824680083919,0.0014073361742063671,0.001982853620311501,-0.00016032791572686363,0.001902387184702647,103.0,0.8795362114906311,0.7986620459933288,0.453285270907851,0.9147283861029422,0.3582122027873993,0.05464105208213981,0.21104786293858124,0.6430834663258974
228,7.5670785701324625,153.6927032470703,0.9975357578985209,120.92346954345703,0.9986119157070918,109.38382720947266,1.0050328630350875,126.851806640625,1.0,70836.0,0.008637528537498718,0.0007545006809882863,0.0013378989021941695,-0.00015538310531814379,0.00121025832660997,103.0,0.8606091141700745,0.7965064844617614,0.4526088429612062,0.9075255592282266,0.35125964879989624,0.053014579649985905,0.19459032130555085,0.6348893069519833
229,7.600413718018509,153.7803955078125,0.9981049206754985,120.85618591308594,0.9980562730739928,109.3634262084961,1.00484541597876,126.2393798828125,1.0,70235.0,0.010663321603862241,0.0005930732450037563,0.0012812869226462558,-0.00015541808586495544,0.0010781350383343006,103.0,0.8613414764404297,0.7981490709760091,0.44415177617996726,0.8998257616521895,0.35268843173980713,0.06248238399057063,0.19464654374599558,0.6338973106160171
230,7.633748865904555,154.06875610351562,0.9999765124902404,120.85153198242188,0.9980178399176042,109.07971954345703,1.0022386821580436,126.04053497314453,1.0,70108.0,0.007148204278546955,0.0008903576494185838,0.0017612973006795425,-0.00015916090628620338,0.0014899713338551866,103.0,0.8482829332351685,0.7925106026891843,0.44360130085011695,0.9019658295594895,0.34870338439941406,0.05196325648414986,0.1790237918639813,0.6280634911819614
231,7.667084013790601,153.2892608642578,0.9949172327857164,120.97681427001953,0.9990524478865486,109.73396301269531,1.008249956436748,128.8155975341797,1.0,70177.0,0.011385466995650961,0.00142943186727558,0.0024894650698072908,-0.00016843511401116578,0.0021884611862008144,103.0,0.9480355381965637,0.8581919052301087,0.6485600695384528,0.9028535405516673,0.3521115481853485,0.05605444627418691,0.3706627527537512,0.703811104742043
232,7.700419161676647,153.3471221923828,0.9952927792012896,120.94991302490234,0.998830291641588,109.70292663574219,1.0079647901595825,128.43634033203125,1.0,70579.0,0.01190185600818966,0.0019093347791049689,0.003080208039878482,-0.00019018684912467813,0.0027953100247329076,103.0,0.9402100443840027,0.8630423591531002,0.6579294124314597,0.911649595060644,0.3522246479988098,0.05775068135728956,0.340327859561626,0.6964864458217795
233,7.733754309562693,153.19566345214844,0.994309742882466,121.01612091064453,0.9993770505450956,109.78820037841797,1.0087482964230727,128.62075805664062,1.0,70856.0,0.01076613532393339,0.0020639631474202837,0.0032164559053995258,-0.00023007865172291496,0.0029769688283253683,103.0,0.929922342300415,0.8468678258251477,0.6147679801287117,0.9137993293783854,0.35294991731643677,0.05856332215630642,0.3266907530766625,0.6878221698104567
234,7.767089457448739,153.2430419921875,0.9946172512211671,120.97818756103516,0.9990637888179419,109.7787857055664,1.008661793181671,128.61019897460938,1.0,71101.0,0.011938102118641825,0.0017550997807053333,0.0027702391401732114,-0.00028913759050604046,0.0025764903585437553,103.0,0.9185839891433716,0.8049628931613714,0.48545027496097104,0.9173612365494285,0.3537164032459259,0.052950739297602765,0.31545266592593635,0.675256990815688
235,7.800424605334785,153.20248413085938,0.9943540121988587,121.05006408691406,0.9996573605660343,109.7474594116211,1.0083739631093895,127.97112274169922,1.0,71171.0,0.009097656973587609,0.001011280553695236,0.0018351759923302931,-0.00036044810413079934,0.0016634476342230705,103.0,0.9158548712730408,0.7817978296403498,0.408171867755125,0.9182643924341342,0.3587713837623596,0.055569891363249295,0.31767152351379074,0.6699664058309684
236,7.833759753220831,153.42214965820312,0.9957797416816095,120.980712890625,0.9990846435306708,109.59712982177734,1.006992715241821,128.475341796875,1.0,70357.0,0.009508567515532917,7.901484442875959e-06,0.0006699506020682718,-0.0004256660406050082,0.0004905808350974672,103.0,0.9003127217292786,0.7794154573579507,0.411416063788962,0.9114309402285151,0.35660693049430847,0.055379951809726144,0.2953224270506133,0.6611649650244763
237,7.867094901106878,153.3883056640625,0.9955600787201799,120.97128295898438,0.9990067691351032,109.64041137695312,1.007390391812706,127.86954498291016,1.0,70002.0,0.010396083921692778,-0.0009965878699407967,-0.0004123238858737108,-0.00045862954555354093,-0.0006176504256441787,103.0,0.8986361622810364,0.778282525261183,0.400931401959944,0.9068321372127367,0.3591053783893585,0.06317848537451097,0.2966629524870718,0.6595395784599883
238,7.900430048992924,153.67623901367188,0.997428897512866,120.94578552246094,0.9987962058422336,109.37793731689453,1.0049787459343078,127.78411865234375,1.0,69204.0,0.0078637180653357,-0.001744910976301529,-0.001158678988734736,-0.000429940703595097,-0.0013877641331065736,103.0,0.8884161710739136,0.7741460031212068,0.4015952835096237,0.9005074821080026,0.35527172684669495,0.05690305790500976,0.28352407375296224,0.6545335688785107
239,7.933765196878969,153.80343627929688,0.9982544657935142,120.95890045166016,0.99890451173704,109.23763275146484,1.0036896092978593,126.86084747314453,1.0,69200.0,0.005605061630288732,-0.0020611357927123584,-0.0014520329804641916,-0.0003146742473640543,-0.0016848195368068053,103.0,0.8883453607559204,0.775578034682081,0.39478323699421963,0.900455432661028,0.3560800552368164,0.055562784645413144,0.2858815028901734,0.6554882021601649
240,7.967100344765016,153.9883575439453,0.9994546891612175,120.93116760253906,0.9986754879280689,109.08045959472656,1.0022454818455766,127.02252960205078,1.0,68096.0,0.004514471782376739,-0.0019033138535044364,-0.0013275655370452093,-0.00010154890870689877,-0.001537605041868597,103.0,0.8769086003303528,0.7751703477443609,0.3978207236842105,0.8886336943755709,0.3522794842720032,0.05895863238940363,0.27318785244360905,0.6494654089378776
241,8.000435492651063,153.23443603515625,0.9945613946340407,121.01502990722656,0.9993680408051554,109.75051879882812,1.0084020731578516,129.17359924316406,1.0,69099.0,0.010362853173500053,-0.0013701989123222496,-0.000934803863600542,0.00020239479288475728,-0.001099865491515585,103.0,0.953920841217041,0.7725968055495255,0.3931460657896641,0.8978793627693027,0.35695570707321167,0.06430780425686738,0.34699489138771905,0.6821093010106104
242,8.033770640537108,153.21656799316406,0.9944454228902021,121.08759307861328,0.9999672830189444,109.69583129882812,1.0078995972791096,128.8498077392578,1.0,69482.0,0.007196236322124849,-0.0006592913848654322,-0.00046972235942603895,0.0005663789022419017,-0.0005808077377863165,103.0,0.9510189890861511,0.7669804169904916,0.3839699490515529,0.9028561033290886,0.36075034737586975,0.06099430858390291,0.3480181917618952,0.6809953796485907
243,8.067105788423154,153.28390502929688,0.9948824709735155,121.09481048583984,1.0000268859139338,109.62125396728516,1.007214371035429,128.47531127929688,1.0,69112.0,0.005989978221434322,4.730239450598486e-06,-0.00010775170184943106,0.0009416775703009572,-0.00016909894147879582,103.0,0.9431231021881104,0.7692585947447621,0.3894837365435814,0.9004938175090229,0.36162447929382324,0.06651552463224276,0.3296243778215071,0.6749148861191225
244,8.1004409363092,153.21751403808594,0.9944515631533258,121.08736419677734,0.9999653928637122,109.69509887695312,1.0078928676914478,128.22604370117188,1.0,69561.0,0.007206501465457538,0.0004400937367717333,3.8756635903352476e-05,0.001266012515393283,1.2696316798346889e-05,103.0,0.9405092597007751,0.7663825036059477,0.38231192766061445,0.906344056600086,0.36350664496421814,0.06324512371496697,0.3308463075573957,0.6744538573634679
245,8.133776084195246,153.251708984375,0.9946735039543014,121.05272674560547,0.9996793493719025,109.69554901123047,1.007897003583865,128.25921630859375,1.0,68940.0,0.008394363368653623,0.0005514638430421467,-6.883821324846638e-05,0.0014761669256185,-7.585228285928263e-05,103.0,0.9395915269851685,0.7648583309157723,0.37731360603423264,0.8982527459641167,0.3651133179664612,0.0735123584672113,0.3306063243400058,0.672228835442694
246,8.167111232081293,153.4884796142578,0.9962102533557912,121.04084777832031,0.9995812503153502,109.47065734863281,1.005830669672359,128.09591674804688,1.0,69299.0,0.0058872586000972005,0.0003378291058069574,-0.00040882869924647894,0.0015195743242456309,-0.0004066370622454314,103.0,0.9331967234611511,0.7618772757663651,0.3781006940937099,0.9034600542344597,0.36508500576019287,0.06393408427200667,0.3175370495966753,0.6689525924543748
247,8.200446379967339,153.544189453125,0.9965718356245827,121.10070037841797,1.0000755259085765,109.3551025390625,1.0047689370189794,128.27171325683594,1.0,69226.0,0.00236282516305103,-0.00012905587935217142,-0.0009214808659083365,0.0013655159760022145,-0.0009078684425994991,103.0,0.9341066479682922,0.7600564335172719,0.3772715453731257,0.9025083437630371,0.3659363090991974,0.06433823529411764,0.31821858839164474,0.6688875487267976
248,8.233781527853385,153.52615356445312,0.996454774479222,121.08589935302734,0.999953295870226,109.3879623413086,1.0050708571654277,128.630615234375,1.0,68985.0,0.003297630331183743,-0.0007390081533791758,-0.0015277779643770464,0.00101291716503667,-0.0014886370986335609,103.0,0.9355139136314392,0.7617791307289025,0.38102486047691525,0.8993663954943679,0.3650740683078766,0.06570713391739674,0.31851851851851853,0.6694248668305606
249,8.26711667573943,153.47894287109375,0.996148355542043,121.10194396972656,1.0000857957520048,109.41910552978516,1.0053570048407938,129.12213134765625,1.0,68340.0,0.0031626929759734357,-0.0013724240283455745,-0.002140511193128785,0.0004919735641092858,-0.0020583663533123076,103.0,0.9365320801734924,0.7653107013949859,0.3845478489903424,0.8909574468085106,0.36332517862319946,0.07335992907801418,0.3173251390108282,0.6689225994720538
250,8.300451823625476,153.66796875,0.9973752197287835,121.0357666015625,0.9995392888691947,109.2962875366211,1.0042285371097688,128.97824096679688,1.0,68055.0,0.0038229045926187477,-0.0019169931213087515,-0.0026721302479066774,-0.00013755368907861887,-0.0025373897618855925,103.0,0.9458737373352051,0.7649988979501874,0.3909925795312615,0.8872418648310388,0.36238282918930054,0.06770181476846057,0.320167511571523,0.6726694258751897
251,8.333786971511524,153.55825805664062,0.9966631472794241,121.16062927246094,1.0005704315535469,109.28114318847656,1.0040893888648885,130.31898498535156,1.0,67016.0,-0.0006064689725102101,-0.0022803378277526484,-0.003046355823892255,-0.0007965804436705084,-0.0028667847570612278,103.0,0.9567955136299133,0.7649964187656679,0.39239883013011817,0.8736962870254484,0.3611185550689697,0.07575876095118898,0.40597767697266324,0.6912722958029544
252,8.36712211939757,153.55157470703125,0.9966197692915493,121.22468566894531,1.0010994229978716,109.22373962402344,1.003561957431901,130.28457641601562,1.0,67517.0,-0.003519735111322364,-0.0024087025373668533,-0.0032148972792887267,-0.0013970936932236745,-0.003013346630126952,103.0,0.9571017026901245,0.7637780114637795,0.39276034183983294,0.8802278890279516,0.3605400323867798,0.06937056737588652,0.4028911237169898,0.6915099619285432
253,8.400457267283615,153.64132690429688,0.9972023019962964,121.14724731445312,1.000459920477636,109.21143341064453,1.0034488863392097,130.43238830566406,1.0,66398.0,-0.0010442161133045746,-0.002306318343698206,-0.003171240124140438,-0.001856346332295719,-0.002972461148117062,103.0,0.9642438888549805,0.766247979356808,0.3980390975631796,0.8766338359166644,0.35990503430366516,0.07949354387262021,0.3868188800867496,0.6889553770828375
254,8.43379241516966,153.57850646972656,0.9967945687175742,121.20634460449219,1.000947958558596,109.21512603759766,1.0034828146770043,130.1889190673828,1.0,66853.0,-0.002996814781956181,-0.0020356065039256513,-0.002949583070997193,-0.0021105821195407134,-0.0027648949159741073,103.0,0.9629626870155334,0.7640793980823598,0.3979626942695167,0.8826410710041984,0.3600858151912689,0.07175675318845555,0.3880603712623218,0.6896875451126668
255,8.467127563055707,153.62771606445312,0.9971139614365151,121.12651062011719,1.0002886724135966,109.24575805664062,1.0037642656609815,130.15122985839844,1.0,67159.0,0.00011686633116997358,-0.0016854037182795576,-0.002604291194454347,-0.002122225588141225,-0.002423137439449161,103.0,0.9629514813423157,0.7673233173017268,0.40331154424574517,0.883531547650371,0.3603268265724182,0.07427774561911277,0.37175955568129365,0.686670005633125
256,8.500462710941754,153.5834197998047,0.9968264584712173,121.17573547363281,1.0006951817988734,109.24085998535156,1.0037192615434938,129.9103546142578,1.0,67226.0,-0.0016116016647703124,-0.001320215083121746,-0.002179399706197017,-0.0018886279127710744,-0.001979930186667283,103.0,0.9605306386947632,0.7642231676236376,0.4018534495582066,0.8844129874230384,0.3609498143196106,0.07509340630426775,0.3705857852616547,0.6850795052420664
257,8.5337978588278,153.606689453125,0.996977489136763,121.138916015625,1.0003911188271832,109.25439453125,1.0038436187154927,129.6554718017578,1.0,66804.0,-0.0001801182333746043,-0.0009441973859640088,-0.0016872623735030758,-0.0014383627930854167,-0.0014537848979554924,103.0,0.9586046934127808,0.7629283675628206,0.40166756481647803,0.8788612324369837,0.3626492917537689,0.08427616692101247,0.36852583677624096,0.6824578275136455
258,8.567133006713846,153.68035888671875,0.9974556373684051,121.218017578125,1.0010443564754394,109.10160827636719,1.002439798689309,129.63809204101562,1.0,68379.0,-0.004841013338354294,-0.0005080580685111642,-0.0011114796971785005,-0.0008302135227528236,-0.0008517963192917423,103.0,0.9521617293357849,0.7664828870462178,0.40306234370201377,0.8898301776302947,0.36287420988082886,0.07351161428850284,0.34662688837216105,0.6789005291314616
259,8.600468154599891,153.66119384765625,0.9973312475218967,121.22500610351562,1.0011020692151966,109.11380767822266,1.0025518883837994,129.59617614746094,1.0,68306.0,-0.004913887756034074,4.3359793548501266e-05,-0.0004332965290502189,-0.0001411160195471996,-0.00017688027450204902,103.0,0.9516159296035767,0.7650084424013507,0.4024536643925863,0.8888802134166178,0.3630337715148926,0.07602316351096362,0.34569437531110003,0.6778808397816302
260,8.633803302485937,153.59536743164062,0.9969040040522811,121.15789794921875,1.0005478757011088,109.2467269897461,1.0037731683446591,129.54849243164062,1.0,68507.0,-0.0009059044599717403,0.0007164669848587177,0.0003358638687126169,0.0005429830524679715,0.0005543681549679451,103.0,0.9504823684692383,0.7636883822091174,0.4004846220094297,0.8914958683063309,0.363167941570282,0.07470882946190384,0.3452639876217029,0.677457653369569
261,8.667138450371983,153.87449645996094,0.9987156787833148,121.05595397949219,0.9997060005606768,109.06954193115234,1.0021451689294942,130.9965057373047,1.0,66812.0,0.00026335103037300467,0.0014461079068203266,0.0011376215744321105,0.001140237160558912,0.0013004114706242486,103.0,0.9654526114463806,0.7738929134486819,0.4075315811530863,0.8670464720920876,0.358377069234848,0.0805896933438883,0.3288481111177633,0.6790170068398621
262,8.70047359825803,153.83425903320312,0.9984545195275484,121.08782196044922,0.9999691731741767,109.07794189453125,1.0022223488879896,130.95521545410156,1.0,67442.0,-0.0007034025969758773,0.0021174818459356536,0.0018767512516456623,0.0015844825635177812,0.001993649729820659,103.0,0.9665085077285767,0.7717001275169776,0.4056522641677293,0.8752222380834966,0.3579177260398865,0.06922148539392917,0.3298241451914237,0.6808565438107957
263,8.733808746144076,153.7841339111328,0.9981291846184878,121.12985229492188,1.0003162686799871,109.0860366821289,1.002296724851626,130.83328247070312,1.0,67398.0,-0.0020193084579019915,0.002613037268836197,0.002451837147966534,0.0018331465885614649,0.002552100752135216,103.0,0.9661369919776917,0.7687963045392049,0.40070921985815605,0.8746512322047315,0.35897117853164673,0.07070090971618412,0.32911955844387075,0.6798052750364485
264,8.767143894030122,153.79147338867188,0.9981768211759484,121.1126937866211,1.000174570042745,109.09579467773438,1.0023863825872439,130.5017547607422,1.0,68397.0,-0.0013045626857710602,0.002852870062445024,0.00278869810765994,0.0018723444834499023,0.002900559453012058,103.0,0.9693357348442078,0.7683280455770477,0.4000760267263184,0.8811775315640299,0.3608631491661072,0.06859056944086575,0.31514540111408396,0.6780541319387398
265,8.800479041916168,153.67803955078125,0.9974405838201016,121.12798309326172,1.0003008324122573,109.19395446777344,1.0032882875336577,130.42245483398438,1.0,67985.0,-0.0005445433159513291,0.0028101914757189925,0.0028599038055717235,0.0017165856712226145,0.0029913482459748694,103.0,0.96866774559021,0.7649677624966292,0.39504302419651394,0.8758696212316414,0.361695796251297,0.07641071888688482,0.3150695006251379,0.6759486740000045
266,8.833814189802213,153.5668487548828,0.9967189048300484,121.19364166259766,1.0008430549432077,109.23951721191406,1.003706923966114,130.26531982421875,1.0,68720.0,-0.0021765482045647544,0.002503684155780639,0.0026842211476449953,0.0014042621995583118,0.002817722529745529,103.0,0.967258870601654,0.7637029491656966,0.39291327124563447,0.8853388301984024,0.36221206188201904,0.06622004637979902,0.3136786961583236,0.6766958392944498
267,8.86714933768826,153.64422607421875,0.997221118931676,121.19029998779297,1.0008154586768172,109.16547393798828,1.0030266047134369,130.0031280517578,1.0,68929.0,-0.0030173092205716956,0.0019803944890514485,0.0023116903716326903,0.0009899954834642196,0.0024157818826262153,103.0,0.9685865640640259,0.7660829742682084,0.39295506970941113,0.8924811932723059,0.3639690577983856,0.06820918519285797,0.3005411365317936,0.6745579935451496
268,8.900484485574307,153.626708984375,0.9971074250273833,121.21597290039062,1.0010274710886982,109.15731811523438,1.0029516679508286,129.68096923828125,1.0,69043.0,-0.003988624146389508,0.001303122826309585,0.001806170646466279,0.0005339519238696989,0.0018543588652192309,103.0,0.9671554565429688,0.762553770838463,0.3903509407181032,0.8939572462548393,0.36600276827812195,0.0670309323734673,0.2997552250047072,0.6735257141246215
269,8.933819633460352,153.57228088378906,0.9967541618247594,121.18710327148438,1.0007890595087405,109.24061584472656,1.0037170183476065,129.50283813476562,1.0,68860.0,-0.001922242177347544,0.0005481607382334685,0.001234896742732269,9.296301806799363e-05,0.0012211334365231747,103.0,0.9677808880805969,0.7633701229547875,0.3913011908219576,0.8904463870066726,0.36761653423309326,0.07572544354213004,0.2874092361312809,0.6699850228706221
270,8.967154781346398,153.52772521972656,0.9964649752389277,121.2415771484375,1.0012389164540096,109.2306900024414,1.003625818414816,129.03794860839844,1.0,69836.0,-0.0038943452249672883,-0.00019253515801643297,0.0006663757964988736,-0.00028923972232905253,0.0006061902664027586,103.0,0.9654356241226196,0.7641140195123813,0.38936937968955837,0.9030672942636943,0.3689461350440979,0.0638545492163658,0.28684346182484677,0.671333674423482
271,9.000489929232444,153.7487335205078,0.9978994199338543,121.2278823852539,1.0011258221659483,109.02336883544922,1.0017209245073198,130.45953369140625,1.0,68016.0,-0.006111992708661307,-0.0008175340674458157,0.00017017348404918872,-0.0005855974813207697,9.063354099073704e-05,103.0,0.9597354531288147,0.7683976319297421,0.40027346506704303,0.8767999174970673,0.36391690373420715,0.06925089915305584,0.373015172900494,0.687136280383762
272,9.033825077118491,153.59561157226562,0.9969055886363131,121.32131958007812,1.001897446536916,109.08309173583984,1.002269666301236,130.4779052734375,1.0,68120.0,-0.008503399841085224,-0.001237359263574221,-0.00018932093286335762,-0.0007883461072059524,-0.0002663647600452811,103.0,0.9613726139068604,0.7663975337639459,0.39954492072812686,0.8781405901537906,0.36363402009010315,0.06629884109161693,0.3720052847915443,0.6874159026131546
273,9.067160225004537,153.61642456054688,0.9970406744250372,121.22128295898438,1.0010713226900858,109.16229248046875,1.0029973730670312,130.79286193847656,1.0,67425.0,-0.004074178740783918,-0.0014031749469809508,-0.0003674959569091521,-0.000904136295174376,-0.00043564355502636486,103.0,0.9670109152793884,0.7676924978371029,0.4016611049314053,0.8734260842530701,0.3646296262741089,0.07830716617441318,0.3557285873192436,0.6839077992632103
274,9.100495372890583,153.5140838623047,0.9963764366061423,121.2585678100586,1.0013792289774148,109.22736358642578,1.0035952548708522,130.37908935546875,1.0,68225.0,-0.004490004668759429,-0.001326160111787284,-0.00035707395490982636,-0.000950342849314745,-0.0004275010306711986,103.0,0.9649326801300049,0.7653108586783927,0.39827042872847196,0.8837893155085755,0.36524859070777893,0.06890253381004197,0.3546647123488457,0.6842038788283422
275,9.133830520776629,153.5244598388672,0.9964437814275003,121.27908325195312,1.0015486498913966,109.19648742675781,1.0033115606909877,129.99252319335938,1.0,68520.0,-0.005580773591725763,-0.001077044176110381,-0.00019885803207722247,-0.0009453949176211134,-0.00029056195297517083,103.0,0.9660128951072693,0.7668563922942208,0.4006859311150029,0.8916186287394761,0.36603450775146484,0.06965607880388815,0.3409223584354933,0.681914001314138
